Time,Light,ECG,Temp,OXI,Battery Voltage (mV)
12,346.0,26.0,0.0,3304.0,463.00,3158.0
14,346.0,26.0,0.0,3510.0,463.00,3273.0
16,345.0,26.0,0.0,3581.0,463.00,3485.0
18,344.0,26.0,0.0,3469.0,463.00,3592.0
20,345.0,26.0,0.0,3265.0,463.00,3517.0
40,346.0,26.0,0.0,3154.0,463.00,3317.0
43,346.0,26.0,0.0,3211.0,463.00,3175.0
71,346.0,26.0,0.0,3404.0,463.00,3196.0
74,345.0,26.0,0.0,3563.0,463.00,3375.0
77,345.0,26.0,0.0,3552.0,463.00,3555.0
82,345.0,26.0,0.0,3362.0,463.00,3581.0
94,346.0,26.0,0.0,3190.0,464.00,3413.0
97,346.0,26.0,0.0,3175.0,464.00,3223.0
174,346.0,26.0,0.0,3346.0,464.00,3172.0
185,346.0,26.0,0.0,3547.0,463.00,3325.0
191,345.0,26.0,0.0,3572.0,464.00,3538.0
198,345.0,26.0,0.0,3403.0,464.00,3597.0
209,345.0,26.0,0.0,3204.0,464.00,3424.0
228,346.0,26.0,0.0,3183.0,464.00,3216.0
233,346.0,26.0,0.0,3372.0,464.00,3187.0
237,345.0,26.0,0.0,3569.0,464.00,3376.0
242,345.0,26.0,0.0,3556.0,464.00,3582.0
270,345.0,26.0,0.0,3315.0,464.00,3560.0
272,346.0,26.0,0.0,3173.0,464.00,3316.0
298,346.0,26.0,0.0,3300.0,464.00,3181.0
310,346.0,26.0,0.0,3548.0,464.00,3334.0
318,344.0,26.0,0.0,3568.0,464.00,3574.0
322,344.0,26.0,0.0,3346.0,464.00,3569.0
324,346.0,26.0,0.0,3174.0,464.00,3343.0
337,347.0,26.0,0.0,3235.0,464.00,3182.0
339,346.0,26.0,0.0,3469.0,464.00,3235.0
341,345.0,26.0,0.0,3594.0,464.00,3485.0
343,344.0,26.0,0.0,3462.0,464.00,3609.0
366,345.0,26.0,0.0,3229.0,464.00,3460.0
369,346.0,26.0,0.0,3181.0,464.00,3231.0
380,346.0,26.0,0.0,3391.0,464.00,3199.0
382,345.0,26.0,0.0,3590.0,464.00,3412.0
384,345.0,26.0,0.0,3510.0,464.00,3614.0
385,345.0,26.0,0.0,3265.0,464.00,3511.0
419,346.0,26.0,0.0,3165.0,464.00,3257.0
428,347.0,26.0,0.0,3322.0,464.00,3175.0
434,353.0,49.0,24.25,3396.0,464.00,3539.0
1171,346.0,26.0,0.0,3140.0,464.00,3189.0
1237,347.0,26.0,0.0,3200.0,464.00,3140.0
1306,346.0,26.0,0.0,3286.0,464.00,3132.0
1372,346.0,26.0,0.0,3403.0,464.00,3172.0
1442,346.0,26.0,0.0,3501.0,464.00,3257.0
1507,345.0,26.0,0.0,3550.0,464.00,3355.0
1595,345.0,26.0,0.0,3551.0,464.00,3463.0
1642,345.0,26.0,0.0,3502.0,464.00,3539.0
2032,345.0,26.0,0.0,3418.0,464.00,3564.0
2033,345.0,26.0,0.0,3303.0,464.00,3532.0
2035,346.0,26.0,0.0,3211.0,464.00,3464.0
2036,346.0,26.0,0.0,3151.0,464.00,3372.0
2038,347.0,26.0,0.0,3127.0,464.00,3267.0
2044,347.0,26.0,0.0,3154.0,464.00,3179.0
2114,346.0,26.0,0.0,3269.0,464.00,3144.0
2179,346.0,26.0,0.0,3426.0,464.00,3193.0
2249,344.0,26.0,0.0,3564.0,464.00,3363.0
2318,343.0,26.0,0.0,3556.0,464.00,3530.0
2383,343.0,26.0,0.0,3421.0,464.00,3590.0
2453,344.0,26.0,0.0,3250.0,464.00,3494.0
2521,345.0,26.0,0.0,3151.0,463.00,3317.0
2588,345.0,26.0,0.0,3191.0,464.00,3186.0
2655,344.0,26.0,0.0,3354.0,464.00,3169.0
2724,344.0,26.0,0.0,3527.0,464.00,3304.0
2793,343.0,26.0,0.0,3578.0,464.00,3493.0
2864,343.0,26.0,0.0,3466.0,464.00,3595.0
2928,344.0,26.0,0.0,3271.0,464.00,3523.0
2994,344.0,26.0,0.0,3158.0,464.00,3332.0
3064,345.0,26.0,0.0,3187.0,464.00,3186.0
3129,345.0,26.0,0.0,3347.0,464.00,3164.0
3199,344.0,26.0,0.0,3506.0,464.00,3278.0
3264,343.0,26.0,0.0,3580.0,464.00,3466.0
3334,343.0,26.0,0.0,3487.0,464.00,3586.0
3403,344.0,26.0,0.0,3299.0,464.00,3544.0
3469,345.0,26.0,0.0,3160.0,464.00,3374.0
3539,345.0,26.0,0.0,3161.0,464.00,3214.0
3604,345.0,26.0,0.0,3283.0,464.00,3144.0
3683,348.0,26.0,0.0,3372.0,464.00,3147.0
3741,352.0,26.0,0.0,3406.0,464.00,3170.0
3805,353.0,26.0,0.0,3446.0,464.00,3207.0
3874,353.0,26.0,0.0,3487.0,464.00,3240.0
3940,353.0,26.0,0.0,3504.0,464.00,3278.0
4006,353.0,26.0,0.0,3513.0,464.00,3309.0
4079,353.0,26.0,0.0,3530.0,464.00,3342.0
4141,353.0,26.0,0.0,3530.0,464.00,3391.0
4206,353.0,26.0,0.0,3527.0,464.00,3431.0
4276,353.0,26.0,0.0,3519.0,464.00,3456.0
4341,353.0,25.0,0.0,3497.0,464.00,3487.0
4407,353.0,25.0,0.0,3477.0,464.00,3514.0
4477,353.0,25.0,0.0,3450.0,464.00,3529.0
4542,353.0,48.0,0.0,3405.0,464.00,3542.0
4608,353.0,48.0,0.0,3379.0,464.00,3542.0
4677,353.0,49.0,0.0,3350.0,464.00,3531.0
4743,353.0,49.0,0.0,3321.0,464.00,3531.0
4808,353.0,49.0,0.0,3295.0,464.00,3523.0
4878,353.0,48.0,0.0,3261.0,464.00,3502.0
4944,354.0,49.0,0.0,3223.0,464.00,3479.0
5009,355.0,49.0,0.0,3185.0,464.00,3445.0
5079,359.0,49.0,0.0,3182.0,464.00,3443.0
5144,359.0,49.0,0.0,3178.0,464.00,3431.0
5210,359.0,48.0,0.0,3172.0,464.00,3427.0
5275,359.0,49.0,0.0,3174.0,464.00,3433.0
5345,355.0,48.0,0.0,3158.0,464.00,3399.0
5410,354.0,26.0,0.0,3128.0,464.00,3325.0
5480,354.0,26.0,0.0,3114.0,464.00,3252.0
5546,353.0,26.0,0.0,3128.0,464.00,3194.0
5611,352.0,26.0,0.0,3178.0,464.00,3141.0
5681,352.0,26.0,0.0,3273.0,464.00,3133.0
5746,352.0,26.0,0.0,3367.0,464.00,3154.0
5817,351.0,26.0,0.0,3462.0,464.00,3216.0
5881,351.0,26.0,0.0,3526.0,464.00,3307.0
5947,351.0,26.0,0.0,3547.0,464.00,3406.0
6017,351.0,26.0,0.0,3532.0,464.00,3490.0
6082,350.0,26.0,0.0,3477.0,464.00,3539.0
6152,351.0,26.0,0.0,3389.0,464.00,3561.0
6217,351.0,26.0,0.0,3299.0,464.00,3536.0
6287,351.0,26.0,0.0,3198.0,464.00,3448.0
6361,352.0,26.0,0.0,3143.0,464.00,3364.0
6419,352.0,26.0,0.0,3123.0,464.00,3269.0
6488,353.0,26.0,0.0,3141.0,464.00,3189.0
6553,353.0,26.0,0.0,3210.0,464.00,3132.0
6623,350.0,26.0,0.0,3340.0,464.00,3160.0
6688,347.0,26.0,0.0,3502.0,464.00,3261.0
6758,345.0,26.0,0.0,3572.0,464.00,3421.0
6824,345.0,26.0,0.0,3527.0,464.00,3550.0
6893,345.0,26.0,0.0,3384.0,464.00,3581.0
6959,345.0,26.0,0.0,3223.0,464.00,3473.0
7028,346.0,26.0,0.0,3137.0,464.00,3305.0
7094,346.0,26.0,0.0,3181.0,464.00,3175.0
7164,346.0,26.0,0.0,3332.0,464.00,3160.0
7230,345.0,26.0,0.0,3502.0,464.00,3257.0
7303,345.0,26.0,0.0,3586.0,464.00,3454.0
7381,344.0,26.0,0.0,3496.0,464.00,3585.0
7436,345.0,26.0,0.0,3324.0,464.00,3551.0
7504,345.0,26.0,0.0,3174.0,464.00,3391.0
7569,346.0,26.0,0.0,3154.0,464.00,3227.0
7638,346.0,26.0,0.0,3286.0,464.00,3158.0
7711,345.0,26.0,0.0,3479.0,464.00,3246.0
7773,344.0,26.0,0.0,3585.0,464.00,3434.0
7843,344.0,26.0,0.0,3508.0,464.00,3586.0
7974,346.0,26.0,23.75,3225.0,464.00,3477.0
8044,354.0,49.0,23.75,3178.0,464.00,3438.0
8109,354.0,49.0,23.75,3149.0,464.00,3382.0
8179,354.0,49.0,23.75,3124.0,464.00,3329.0
8246,355.0,49.0,23.75,3112.0,464.00,3262.0
8310,355.0,25.0,23.75,3114.0,464.00,3217.0
8380,355.0,27.0,23.75,3133.0,464.00,3168.0
8445,354.0,26.0,23.75,3168.0,464.00,3139.0
8511,354.0,26.0,23.75,3208.0,464.00,3119.0
8581,354.0,26.0,23.75,3259.0,464.00,3120.0
8646,354.0,26.0,23.75,3320.0,464.00,3130.0
8712,363.0,25.0,23.75,3294.0,464.00,3091.0
8781,366.0,49.0,23.75,3225.0,464.00,3082.0
8847,367.0,49.0,23.75,3157.0,464.00,3094.0
8912,367.0,49.0,23.75,3107.0,464.00,3122.0
8981,367.0,49.0,23.75,3080.0,464.00,3178.0
9043,366.0,49.0,23.75,3084.0,464.00,3240.0
9116,366.0,49.0,23.75,3089.0,464.00,3274.0
9179,366.0,49.0,23.75,3099.0,463.00,3309.0
9244,365.0,49.0,23.75,3105.0,464.00,3324.0
9310,365.0,49.0,23.75,3116.0,463.00,3351.0
9375,365.0,49.0,23.75,3115.0,463.00,3371.0
9441,368.0,49.0,23.75,3270.0,464.00,3431.0
9506,366.0,49.0,23.75,3399.0,463.00,3169.0
9572,366.0,49.0,23.75,3114.0,464.00,3007.0
9637,367.0,49.0,23.75,3015.0,463.00,3249.0
9699,383.0,49.0,23.75,3274.0,463.00,3417.0
9764,377.0,49.0,23.75,3408.0,463.00,3153.0
9840,366.0,49.0,23.75,3130.0,463.00,3007.0
9895,366.0,49.0,23.75,3019.0,464.00,3237.0
9957,382.0,49.0,23.75,3244.0,463.00,3425.0
10022,365.0,49.0,23.75,3413.0,464.00,3196.0
10088,365.0,49.0,23.75,3172.0,464.00,3002.0
10153,365.0,49.0,23.75,3005.0,463.00,3200.0
10219,382.0,49.0,23.75,3227.0,463.00,3426.0
10280,365.0,49.0,23.75,3430.0,463.00,3236.0
10346,364.0,49.0,23.75,3220.0,463.00,3009.0
10411,365.0,49.0,23.75,3011.0,463.00,3151.0
10477,378.0,49.0,23.75,3170.0,463.00,3418.0
10538,365.0,49.0,23.75,3418.0,463.00,3312.0
10604,364.0,49.0,23.75,3300.0,463.00,3040.0
10669,361.0,49.0,23.75,3057.0,463.00,3109.0
10735,354.0,49.0,23.75,3059.0,464.00,3286.0
10801,353.0,49.0,23.75,3185.0,463.00,3435.0
10868,352.0,49.0,23.75,3371.0,464.00,3456.0
10932,352.0,49.0,23.75,3471.0,464.00,3320.0
10999,351.0,49.0,23.75,3412.0,464.00,3131.0
11063,353.0,49.0,23.75,3212.0,464.00,3035.0
11128,354.0,49.0,23.75,3053.0,464.00,3119.0
11195,355.0,49.0,23.75,3067.0,464.00,3316.0
11259,354.0,49.0,23.75,3235.0,464.00,3459.0
11325,354.0,49.0,23.75,3417.0,464.00,3409.0
11390,353.0,49.0,23.75,3446.0,464.00,3196.0
11456,353.0,49.0,23.75,3277.0,464.00,3044.0
11521,354.0,49.0,23.75,3084.0,464.00,3077.0
11587,354.0,49.0,23.75,3044.0,464.00,3253.0
11652,354.0,49.0,23.75,3174.0,464.00,3430.0
11725,354.0,49.0,23.75,3368.0,464.00,3450.0
11780,353.0,49.0,23.75,3468.0,464.00,3279.0
11845,353.0,49.0,23.75,3368.0,464.00,3089.0
11910,353.0,49.0,23.75,3152.0,464.00,3036.0
11976,354.0,49.0,23.75,3039.0,464.00,3168.0
12041,355.0,49.0,23.75,3105.0,464.00,3368.0
12107,355.0,49.0,23.75,3301.0,464.00,3466.0
12173,354.0,49.0,23.75,3454.0,464.00,3336.0
12238,353.0,49.0,23.75,3405.0,464.00,3132.0
12304,353.0,49.0,23.75,3203.0,464.00,3034.0
12369,354.0,49.0,23.75,3044.0,464.00,3131.0
12435,355.0,49.0,23.75,3078.0,464.00,3338.0
12500,354.0,49.0,23.75,3261.0,464.00,3459.0
12566,354.0,49.0,23.75,3433.0,464.00,3392.0
12631,353.0,49.0,23.75,3438.0,464.00,3181.0
12697,353.0,49.0,23.75,3261.0,464.00,3042.0
12783,354.0,49.0,23.75,3077.0,464.00,3086.0
12828,354.0,49.0,23.75,3047.0,464.00,3257.0
12894,354.0,49.0,23.75,3172.0,464.00,3430.0
12959,354.0,49.0,23.75,3370.0,464.00,3441.0
13024,353.0,49.0,23.75,3466.0,464.00,3280.0
13090,352.0,49.0,23.75,3374.0,464.00,3105.0
13157,353.0,49.0,23.75,3185.0,464.00,3038.0
13221,354.0,49.0,23.75,3049.0,464.00,3132.0
13287,354.0,49.0,23.75,3072.0,464.00,3325.0
13352,354.0,49.0,23.75,3237.0,464.00,3458.0
13413,353.0,49.0,23.75,3414.0,464.00,3403.0
13479,352.0,49.0,23.75,3451.0,464.00,3210.0
13546,352.0,49.0,23.75,3292.0,464.00,3049.0
13610,353.0,49.0,23.75,3090.0,464.00,3069.0
13684,354.0,49.0,23.75,3038.0,464.00,3246.0
13741,354.0,49.0,23.75,3175.0,464.00,3433.0
13807,353.0,49.0,23.75,3376.0,464.00,3441.0
13872,352.0,49.0,23.75,3462.0,464.00,3256.0
13938,352.0,49.0,23.75,3325.0,464.00,3064.0
14003,353.0,49.0,23.75,3118.0,464.00,3056.0
14069,355.0,49.0,23.75,3047.0,464.00,3203.0
14134,355.0,49.0,23.75,3132.0,464.00,3334.0
14204,354.0,26.0,23.75,3199.0,464.00,3217.0
14270,354.0,26.0,23.75,3392.0,464.00,3185.0
14346,353.0,26.0,23.75,3556.0,464.00,3341.0
14404,352.0,26.0,23.75,3557.0,464.00,3477.0
14474,352.0,26.0,23.75,3500.0,464.00,3496.0
14605,352.0,49.0,24.25,3476.0,464.00,3483.0
14675,353.0,49.0,24.25,3489.0,464.00,3473.0
14740,353.0,49.0,24.25,3496.0,464.00,3484.0
14806,353.0,49.0,24.25,3496.0,464.00,3487.0
14876,353.0,49.0,24.25,3494.0,464.00,3480.0
14941,353.0,49.0,24.25,3494.0,464.00,3489.0
15007,352.0,49.0,24.25,3477.0,464.00,3521.0
15072,352.0,49.0,24.25,3447.0,464.00,3527.0
15142,352.0,49.0,24.25,3435.0,464.00,3527.0
15207,352.0,49.0,24.25,3420.0,464.00,3529.0
15273,352.0,49.0,24.25,3396.0,464.00,3540.0
15342,353.0,49.0,24.25,3378.0,464.00,3534.0
15408,353.0,49.0,24.25,3379.0,464.00,3532.0
15474,359.0,49.0,24.25,3376.0,464.00,3498.0
15539,358.0,49.0,24.25,3455.0,464.00,3514.0
15609,351.0,49.0,24.25,3443.0,464.00,3531.0
15674,350.0,49.0,24.25,3425.0,464.00,3530.0
15740,351.0,49.0,24.25,3410.0,464.00,3535.0
15810,351.0,49.0,24.25,3393.0,464.00,3532.0
15875,353.0,49.0,24.25,3379.0,464.00,3529.0
15940,354.0,49.0,24.25,3393.0,464.00,3514.0
16006,354.0,49.0,24.25,3435.0,464.00,3484.0
16072,354.0,49.0,24.25,3476.0,464.00,3445.0
16141,353.0,49.0,24.25,3500.0,464.00,3403.0
16207,353.0,49.0,24.25,3510.0,464.00,3351.0
16272,353.0,49.0,24.25,3523.0,464.00,3347.0
16338,353.0,49.0,24.25,3532.0,464.00,3366.0
16407,352.0,49.0,24.25,3543.0,464.00,3396.0
16473,353.0,42.0,24.25,3540.0,464.00,3437.0
16539,353.0,48.0,24.25,3525.0,464.00,3483.0
16608,353.0,48.0,24.25,3497.0,464.00,3511.0
16674,353.0,49.0,24.25,3450.0,464.00,3538.0
16739,353.0,49.0,24.25,3409.0,463.00,3535.0
16809,353.0,49.0,24.25,3374.0,464.00,3538.0
16874,353.0,49.0,24.25,3355.0,464.00,3523.0
16940,353.0,49.0,24.25,3379.0,464.00,3525.0
17005,353.0,49.0,24.25,3405.0,464.00,3514.0
17082,353.0,49.0,24.25,3434.0,464.00,3502.0
17140,353.0,49.0,24.25,3456.0,464.00,3488.0
17206,353.0,49.0,24.25,3477.0,464.00,3450.0
17272,353.0,49.0,24.25,3497.0,464.00,3406.0
17341,353.0,49.0,24.25,3508.0,464.00,3358.0
17407,353.0,49.0,24.25,3505.0,464.00,3300.0
17472,353.0,49.0,24.25,3484.0,464.00,3229.0
17538,353.0,49.0,24.25,3446.0,464.00,3185.0
17604,354.0,49.0,24.25,3400.0,464.00,3148.0
17669,354.0,49.0,24.25,3349.0,464.00,3112.0
17739,353.0,49.0,24.25,3291.0,464.00,3089.0
17804,354.0,49.0,24.25,3236.0,464.00,3086.0
17870,353.0,49.0,24.25,3193.0,464.00,3090.0
17936,353.0,49.0,24.25,3154.0,464.00,3106.0
18001,353.0,49.0,24.25,3130.0,464.00,3124.0
18070,353.0,49.0,24.25,3112.0,464.00,3143.0
18136,353.0,49.0,24.25,3095.0,464.00,3169.0
18202,353.0,49.0,24.25,3082.0,464.00,3204.0
18267,353.0,49.0,24.25,3089.0,464.00,3280.0
18332,353.0,49.0,24.25,3116.0,464.00,3359.0
18402,353.0,49.0,24.25,3172.0,464.00,3424.0
18468,353.0,49.0,24.25,3252.0,464.00,3484.0
18533,353.0,49.0,24.25,3336.0,464.00,3498.0
18599,352.0,49.0,24.25,3421.0,464.00,3484.0
18664,352.0,49.0,24.25,3483.0,464.00,3409.0
18730,352.0,49.0,24.25,3500.0,464.00,3320.0
18795,352.0,49.0,24.25,3464.0,464.00,3211.0
18861,352.0,49.0,24.25,3375.0,464.00,3122.0
18932,352.0,49.0,24.25,3291.0,464.00,3080.0
18996,352.0,49.0,24.25,3194.0,464.00,3072.0
19061,353.0,49.0,24.25,3110.0,464.00,3109.0
19127,353.0,49.0,24.25,3072.0,464.00,3183.0
19193,353.0,49.0,24.25,3081.0,464.00,3286.0
19258,353.0,49.0,24.25,3128.0,464.00,3382.0
19324,353.0,49.0,24.25,3211.0,464.00,3455.0
19389,352.0,49.0,24.25,3317.0,464.00,3498.0
19459,352.0,49.0,24.25,3416.0,464.00,3473.0
19525,352.0,49.0,24.25,3473.0,464.00,3412.0
19590,353.0,49.0,24.25,3504.0,464.00,3317.0
19655,355.0,49.0,24.25,3477.0,464.00,3240.0
19730,355.0,49.0,24.25,3430.0,464.00,3175.0
19801,355.0,49.0,24.25,3387.0,464.00,3131.0
19852,355.0,49.0,24.25,3315.0,464.00,3088.0
19922,355.0,49.0,24.25,3220.0,464.00,3076.0
19987,355.0,49.0,24.25,3154.0,464.00,3093.0
20053,356.0,48.0,24.25,3103.0,464.00,3130.0
20118,356.0,49.0,24.25,3077.0,464.00,3194.0
20184,356.0,49.0,24.25,3081.0,464.00,3269.0
20250,356.0,49.0,24.25,3120.0,464.00,3366.0
20319,356.0,49.0,24.25,3172.0,464.00,3427.0
20384,355.0,49.0,24.25,3265.0,464.00,3487.0
20450,355.0,49.0,24.25,3362.0,464.00,3492.0
20516,354.0,49.0,24.25,3442.0,464.00,3466.0
20581,354.0,49.0,24.25,3485.0,464.00,3392.0
20648,354.0,49.0,24.25,3496.0,464.00,3292.0
20712,354.0,49.0,24.25,3452.0,464.00,3193.0
20778,354.0,49.0,24.25,3376.0,464.00,3120.0
20843,355.0,49.0,24.25,3274.0,464.00,3069.0
20913,355.0,49.0,24.25,3165.0,464.00,3076.0
20978,355.0,49.0,24.25,3091.0,464.00,3128.0
21044,356.0,49.0,24.25,3072.0,464.00,3216.0
21109,356.0,49.0,24.25,3088.0,464.00,3312.0
21175,356.0,49.0,24.25,3153.0,464.00,3416.0
21306,355.0,49.0,24.25,3337.0,464.00,3500.0
21371,355.0,49.0,24.25,3429.0,464.00,3472.0
21441,355.0,49.0,24.25,3489.0,464.00,3416.0
21507,354.0,49.0,24.25,3505.0,464.00,3349.0
21579,354.0,49.0,24.25,3511.0,464.00,3304.0
21638,354.0,49.0,24.25,3496.0,464.00,3252.0
21703,354.0,49.0,24.25,3476.0,464.00,3217.0
21773,354.0,49.0,24.25,3456.0,464.00,3193.0
21839,354.0,49.0,24.25,3441.0,464.00,3177.0
21904,354.0,49.0,24.25,3409.0,464.00,3147.0
21970,355.0,49.0,24.25,3363.0,464.00,3119.0
22035,354.0,49.0,24.25,3313.0,464.00,3099.0
22105,355.0,49.0,24.25,3273.0,464.00,3090.0
22170,355.0,49.0,24.25,3225.0,464.00,3086.0
22236,355.0,49.0,24.25,3185.0,464.00,3091.0
22301,355.0,49.0,24.25,3136.0,464.00,3111.0
22367,355.0,49.0,24.25,3106.0,464.00,3144.0
22443,356.0,49.0,24.25,3082.0,464.00,3191.0
22502,355.0,48.0,24.25,3081.0,464.00,3249.0
22568,356.0,49.0,24.25,3106.0,464.00,3336.0
22633,356.0,49.0,24.25,3153.0,464.00,3412.0
22699,356.0,49.0,24.25,3219.0,464.00,3460.0
22764,356.0,49.0,24.25,3301.0,464.00,3498.0
22834,355.0,49.0,24.25,3400.0,464.00,3488.0
22899,355.0,49.0,24.25,3463.0,464.00,3455.0
22965,354.0,49.0,24.25,3493.0,464.00,3387.0
23030,354.0,49.0,24.25,3500.0,464.00,3301.0
23096,354.0,49.0,24.25,3466.0,464.00,3221.0
23162,354.0,49.0,24.25,3416.0,464.00,3151.0
23227,355.0,49.0,24.25,3342.0,464.00,3101.0
23297,355.0,49.0,24.25,3266.0,464.00,3082.0
23362,355.0,49.0,24.25,3215.0,464.00,3084.0
23429,356.0,49.0,24.25,3170.0,464.00,3101.0
23493,356.0,49.0,24.25,3143.0,464.00,3118.0
23559,356.0,49.0,24.25,3116.0,464.00,3139.0
23629,356.0,49.0,24.25,3095.0,464.00,3169.0
23694,356.0,49.0,24.25,3090.0,464.00,3211.0
23759,356.0,49.0,24.25,3089.0,464.00,3252.0
23825,356.0,49.0,24.25,3098.0,464.00,3296.0
23890,356.0,49.0,24.25,3119.0,464.00,3347.0
23960,356.0,49.0,24.25,3153.0,464.00,3405.0
24026,356.0,49.0,24.25,3183.0,464.00,3439.0
24091,355.0,49.0,24.25,3214.0,464.00,3471.0
24157,356.0,49.0,24.25,3266.0,464.00,3496.0
24226,355.0,49.0,24.25,3321.0,464.00,3506.0
24292,355.0,49.0,24.25,3364.0,464.00,3511.0
24357,355.0,49.0,24.25,3409.0,464.00,3511.0
24423,355.0,49.0,24.25,3439.0,464.00,3493.0
24488,355.0,49.0,24.25,3475.0,464.00,3469.0
24558,354.0,49.0,24.25,3492.0,464.00,3442.0
24624,354.0,49.0,24.25,3509.0,464.00,3399.0
24692,354.0,49.0,24.25,3517.0,464.00,3355.0
24755,354.0,49.0,24.25,3519.0,464.00,3326.0
24820,354.0,49.0,24.25,3501.0,464.00,3279.0
24890,354.0,49.0,24.25,3450.0,464.00,3199.0
24955,355.0,49.0,24.25,3389.0,464.00,3127.0
25021,355.0,49.0,24.25,3308.0,464.00,3085.0
25091,355.0,49.0,24.25,3216.0,464.00,3072.0
25152,356.0,49.0,24.25,3140.0,464.00,3093.0
25218,356.0,49.0,24.25,3091.0,464.00,3147.0
25283,357.0,49.0,24.25,3070.0,464.00,3215.0
25352,357.0,49.0,24.25,3095.0,464.00,3326.0
25418,357.0,49.0,24.25,3156.0,464.00,3408.0
25483,356.0,49.0,24.25,3240.0,464.00,3480.0
25549,356.0,49.0,24.25,3298.0,464.00,3504.0
25615,355.0,49.0,24.25,3368.0,464.00,3502.0
25680,354.0,49.0,24.25,3430.0,464.00,3488.0
25750,354.0,49.0,24.25,3473.0,464.00,3448.0
25815,354.0,49.0,24.25,3502.0,464.00,3384.0
25881,354.0,49.0,24.25,3508.0,464.00,3319.0
25946,354.0,49.0,24.25,3480.0,464.00,3249.0
26012,354.0,49.0,24.25,3455.0,464.00,3194.0
26077,354.0,49.0,24.25,3416.0,464.00,3153.0
26150,354.0,49.0,24.25,3361.0,464.00,3111.0
26213,354.0,49.0,24.25,3313.0,464.00,3097.0
26278,355.0,49.0,24.25,3269.0,464.00,3090.0
26344,355.0,49.0,24.25,3225.0,464.00,3085.0
26409,355.0,49.0,24.25,3183.0,464.00,3093.0
26479,355.0,49.0,24.25,3157.0,464.00,3106.0
26545,355.0,49.0,24.25,3128.0,464.00,3127.0
26610,355.0,49.0,24.25,3111.0,464.00,3143.0
26676,355.0,49.0,24.25,3093.0,464.00,3179.0
26745,355.0,49.0,24.25,3094.0,464.00,3216.0
26811,356.0,49.0,24.25,3091.0,464.00,3242.0
26876,356.0,49.0,24.25,3097.0,464.00,3273.0
26942,355.0,49.0,24.25,3106.0,464.00,3307.0
27007,355.0,49.0,24.25,3110.0,464.00,3330.0
27077,355.0,49.0,24.25,3124.0,464.00,3343.0
27142,356.0,49.0,24.25,3131.0,464.00,3354.0
27208,355.0,49.0,24.25,3135.0,464.00,3359.0
27277,356.0,49.0,24.25,3132.0,464.00,3346.0
27343,356.0,49.0,24.25,3123.0,464.00,3334.0
27409,356.0,49.0,24.25,3126.0,464.00,3349.0
27474,356.0,49.0,24.25,3137.0,464.00,3370.0
27544,356.0,49.0,24.25,3154.0,464.00,3396.0
27609,356.0,49.0,24.25,3169.0,464.00,3416.0
27675,355.0,49.0,24.25,3191.0,464.00,3441.0
27747,355.0,49.0,24.25,3219.0,464.00,3463.0
27810,355.0,49.0,24.25,3242.0,464.00,3477.0
27876,355.0,49.0,24.25,3257.0,464.00,3487.0
28007,355.0,49.0,24.25,3328.0,464.00,3517.0
28072,355.0,49.0,24.25,3359.0,464.00,3522.0
28142,355.0,49.0,24.25,3385.0,464.00,3513.0
28207,355.0,49.0,24.25,3427.0,464.00,3498.0
28273,355.0,49.0,24.25,3468.0,464.00,3479.0
28356,354.0,49.0,24.25,3490.0,464.00,3458.0
28408,354.0,49.0,24.25,3506.0,464.00,3445.0
28474,354.0,49.0,24.25,3522.0,464.00,3479.0
28539,354.0,26.0,24.25,3493.0,464.00,3548.0
28609,354.0,26.0,24.25,3357.0,464.00,3585.0
28674,356.0,26.0,24.25,3085.0,464.00,3294.0
28740,356.0,49.0,24.25,3185.0,464.00,3437.0
28805,355.0,49.0,24.25,3397.0,464.00,3429.0
28871,355.0,49.0,24.25,3464.0,464.00,3249.0
28936,354.0,49.0,24.25,3324.0,464.00,3065.0
29002,355.0,49.0,24.25,3111.0,464.00,3055.0
29067,356.0,49.0,24.25,3035.0,464.00,3215.0
29133,357.0,49.0,24.25,3158.0,464.00,3417.0
29198,356.0,49.0,24.25,3380.0,464.00,3424.0
29264,355.0,49.0,24.25,3447.0,464.00,3231.0
29329,355.0,49.0,24.25,3291.0,464.00,3047.0
29395,355.0,49.0,24.25,3080.0,464.00,3069.0
29461,356.0,49.0,24.25,3042.0,464.00,3274.0
29526,356.0,49.0,24.25,3199.0,464.00,3443.0
29588,355.0,49.0,24.25,3409.0,464.00,3389.0
29653,355.0,49.0,24.25,3395.0,464.00,3136.0
29719,355.0,49.0,24.25,3153.0,464.00,3025.0
29784,356.0,49.0,24.25,3019.0,464.00,3172.0
29850,356.0,49.0,24.25,3102.0,464.00,3385.0
29915,356.0,49.0,24.25,3299.0,464.00,3469.0
29981,355.0,49.0,24.25,3443.0,464.00,3397.0
30046,355.0,49.0,24.25,3490.0,464.00,3308.0
30112,355.0,49.0,24.25,3504.0,464.00,3298.0
30181,355.0,49.0,24.25,3511.0,464.00,3307.0
30247,355.0,48.0,24.25,3506.0,464.00,3320.0
30312,355.0,49.0,24.25,3485.0,464.00,3320.0
30378,356.0,49.0,24.25,3443.0,464.00,3266.0
30452,356.0,49.0,24.25,3345.0,464.00,3179.0
30513,356.0,49.0,24.25,3093.0,464.00,3097.0
30575,357.0,49.0,24.25,2259.0,464.00,3203.0
30644,360.0,49.0,24.25,1600.0,464.00,3107.0
30710,359.0,49.0,24.25,476.0,451.00,3207.0
30775,360.0,49.0,24.25,238.0,452.00,3359.0
30841,359.0,49.0,24.25,134.0,451.00,3509.0
30902,357.0,41.0,24.25,343.0,464.00,3158.0
30968,358.0,26.0,24.25,426.0,451.00,3498.0
31029,374.0,26.0,24.25,322.0,463.00,3219.0
31095,357.0,26.0,24.25,216.0,451.00,3200.0
31157,360.0,26.0,24.25,169.0,464.00,3473.0
31218,357.0,26.0,24.25,187.0,451.00,3237.0
31283,376.0,26.0,24.25,81.0,464.00,3258.0
31349,360.0,26.0,24.25,186.0,451.00,3561.0
31414,360.0,26.0,24.25,209.0,451.00,3366.0
31480,360.0,26.0,24.25,220.0,451.00,3186.0
31541,360.0,26.0,24.25,277.0,464.00,3531.0
31603,376.0,26.0,24.25,348.0,464.00,3204.0
31668,376.0,26.0,24.25,424.0,451.00,3551.0
31734,376.0,26.0,24.25,442.0,451.00,3718.0
31796,358.0,49.0,24.25,453.0,451.00,3430.0
31861,357.0,49.0,24.25,533.0,451.00,3304.0
31930,358.0,49.0,24.25,676.0,451.00,3191.0
31996,357.0,49.0,24.25,694.0,451.00,3077.0
32062,357.0,26.0,24.25,658.0,451.00,2984.0
32127,357.0,26.0,24.25,581.0,451.00,2870.0
32193,374.0,26.0,24.25,547.0,451.00,3000.0
32258,374.0,49.0,24.25,510.0,451.00,3241.0
32324,373.0,48.0,24.25,516.0,451.00,3107.0
32389,372.0,49.0,24.25,434.0,452.00,3488.0
32451,372.0,48.0,24.25,365.0,451.00,3585.0
32516,373.0,50.0,24.25,338.0,464.00,4000.0
32582,372.0,26.0,24.25,337.0,464.00,3708.0
32643,372.0,49.0,24.25,334.0,464.00,3740.0
32708,373.0,49.0,24.25,400.0,452.00,3855.0
32774,373.0,49.0,24.25,444.0,451.00,3719.0
32840,372.0,49.0,24.25,439.0,452.00,3584.0
32905,372.0,49.0,24.25,431.0,452.00,3498.0
32971,372.0,49.0,24.25,470.0,452.00,3305.0
33037,373.0,49.0,24.25,499.0,452.00,3177.0
33098,373.0,49.0,24.25,516.0,451.00,3148.0
33163,372.0,49.0,24.25,528.0,451.00,2874.0
33229,373.0,49.0,24.25,432.0,452.00,3527.0
33290,357.0,49.0,24.25,398.0,452.00,3994.0
33356,357.0,49.0,24.25,393.0,452.00,4055.0
33422,373.0,49.0,24.25,376.0,452.00,3695.0
33487,372.0,49.0,24.25,385.0,452.00,3761.0
33549,373.0,49.0,24.25,369.0,464.00,3959.0
33614,372.0,49.0,24.25,371.0,451.00,3782.0
33679,372.0,49.0,24.25,344.0,464.00,3585.0
33741,372.0,49.0,24.25,389.0,452.00,3757.0
33810,373.0,49.0,24.25,474.0,452.00,3700.0
33876,373.0,26.0,24.25,498.0,451.00,3664.0
33941,356.0,26.0,24.25,419.0,451.00,3841.0
34007,355.0,49.0,24.25,1005.0,464.00,3792.0
34084,372.0,26.0,24.25,1556.0,464.00,3336.0
34142,356.0,26.0,24.25,2031.0,464.00,3122.0
34208,359.0,49.0,24.25,2338.0,464.00,3313.0
34273,359.0,49.0,24.25,2794.0,464.00,3463.0
34339,357.0,49.0,24.25,3221.0,464.00,3295.0
34404,356.0,49.0,24.25,3153.0,464.00,3025.0
34470,357.0,49.0,24.25,2938.0,464.00,3118.0
34605,373.0,26.0,24.0,3275.0,464.00,3039.0
34666,356.0,49.0,24.0,3004.0,464.00,3077.0
34732,370.0,49.0,24.0,3089.0,464.00,3376.0
34797,373.0,49.0,24.0,3383.0,464.00,3358.0
34863,355.0,49.0,24.0,3351.0,464.00,3076.0
34928,356.0,49.0,24.0,3074.0,464.00,3043.0
34994,357.0,49.0,24.0,3042.0,464.00,3301.0
35055,357.0,49.0,24.0,3283.0,464.00,3430.0
35121,356.0,48.0,24.0,3435.0,464.00,3238.0
35187,355.0,49.0,24.0,3257.0,464.00,3026.0
35252,356.0,49.0,24.0,3018.0,464.00,3102.0
35318,357.0,49.0,24.0,3103.0,464.00,3379.0
35383,356.0,49.0,24.0,3370.0,464.00,3383.0
35445,355.0,49.0,24.0,3362.0,464.00,3098.0
35510,356.0,49.0,24.0,3107.0,464.00,3031.0
35576,357.0,49.0,24.0,3026.0,464.00,3204.0
35641,359.0,49.0,24.0,3120.0,464.00,3375.0
35718,374.0,26.0,24.0,3714.0,464.00,3626.0
35785,354.0,26.0,24.0,4094.0,464.00,4191.0
35854,369.0,49.0,24.0,4134.0,464.00,4183.0
35924,349.0,26.0,24.0,4594.0,464.00,4657.0
35997,350.0,49.0,24.0,4094.0,464.00,4240.0
36067,350.0,26.0,24.0,4559.0,464.00,4589.0
36141,350.0,26.0,24.0,4375.0,464.00,4525.0
36210,348.0,49.0,24.0,4319.0,464.00,4306.0
36284,347.0,26.0,24.0,4695.0,464.00,4825.0
36362,363.0,26.0,24.0,5008.0,464.00,4922.0
36432,362.0,49.0,24.0,5069.0,464.00,5457.0
36509,345.0,26.0,24.0,5568.0,464.00,5589.0
36591,346.0,26.0,24.0,5527.0,464.00,5986.0
36665,361.0,49.0,24.0,6248.0,464.00,6869.0
36751,363.0,49.0,24.0,9561.0,464.00,10774.0
36853,364.0,49.0,24.0,12937.0,464.00,17239.0
37001,362.0,49.0,24.0,24897.0,464.00,28669.0
37128,363.0,49.0,24.0,16568.0,464.00,21113.0
37259,368.0,49.0,24.0,16035.0,464.00,24808.0
37378,376.0,49.0,24.0,16395.0,464.00,12419.0
37464,357.0,26.0,24.0,6198.0,464.00,7612.0
37546,353.0,26.0,24.0,5989.0,464.00,6891.0
37628,353.0,26.0,24.0,5681.0,464.00,6818.0
37705,355.0,49.0,24.0,5501.0,464.00,6353.0
37779,373.0,48.0,24.0,5317.0,464.00,6382.0
37857,356.0,26.0,24.0,5170.0,464.00,7151.0
37943,355.0,26.0,24.0,5265.0,464.00,8083.0
38021,374.0,48.0,24.0,4824.0,464.00,8229.0
38111,354.0,24.0,24.0,7420.0,464.00,10924.0
38251,359.0,24.0,24.0,13863.0,464.00,25794.0
38381,358.0,24.0,24.0,11465.0,464.00,28864.0
38516,354.0,24.0,24.0,9011.0,464.00,30510.0
38652,352.0,24.0,24.0,9892.0,464.00,29616.0
38782,352.0,25.0,24.0,8632.0,464.00,29991.0
38922,352.0,26.0,24.0,10654.0,464.00,29731.0
39065,352.0,26.0,24.0,13837.0,464.00,29939.0
39213,352.0,26.0,24.0,15793.0,464.00,30065.0
39360,352.0,26.0,24.0,14300.0,463.00,29265.0
39495,352.0,27.0,24.0,11847.0,464.00,29244.0
39630,351.0,27.0,24.0,9743.0,464.00,28983.0
39760,351.0,27.0,24.0,8415.0,464.00,28815.0
39884,352.0,27.0,24.0,7100.0,463.00,28370.0
40008,352.0,26.0,24.0,6398.0,464.00,28507.0
40130,351.0,26.0,24.0,6458.0,463.00,28310.0
40253,352.0,26.0,24.0,6357.0,464.00,28021.0
40372,352.0,26.0,24.0,6220.0,463.00,28309.0
40495,351.0,26.0,24.0,6123.0,464.00,27887.0
40618,350.0,26.0,24.0,6395.0,464.00,28176.0
40740,349.0,26.0,24.0,6853.0,463.00,28417.0
40863,349.0,26.0,24.0,6882.0,463.00,28158.0
40986,349.0,26.0,24.0,6764.0,463.00,27768.0
41109,349.0,26.0,24.0,6668.0,463.00,27936.0
41232,349.0,26.0,24.0,6608.0,463.00,28058.0
41355,349.0,26.0,24.0,6646.0,464.00,27776.0
41473,348.0,26.0,24.0,6707.0,463.00,27819.0
41605,349.0,26.0,24.0,10762.0,463.00,27862.0
41744,349.0,26.0,24.0,12944.0,463.00,27513.0
41879,350.0,26.0,24.0,13116.0,463.00,27370.0
42010,350.0,26.0,24.0,10900.0,463.00,27068.0
42125,352.0,26.0,24.0,5216.0,464.00,26946.0
42248,354.0,26.0,24.0,6171.0,463.00,27219.0
42370,352.0,26.0,24.0,8070.0,463.00,27387.0
42497,349.0,26.0,24.0,9200.0,463.00,28457.0
42616,347.0,26.0,24.0,4236.0,463.00,28730.0
42731,347.0,26.0,24.0,3739.0,463.00,28988.0
42846,346.0,26.0,24.0,3433.0,463.00,28853.0
42956,345.0,26.0,24.0,2906.0,463.00,28889.0
43067,343.0,26.0,24.0,2732.0,463.00,28554.0
43177,342.0,26.0,24.0,2675.0,463.00,28291.0
43288,341.0,26.0,24.0,2598.0,463.00,28137.0
43398,340.0,26.0,24.0,3963.0,463.00,28039.0
43521,336.0,26.0,24.0,5911.0,463.00,28394.0
43669,341.0,26.0,24.0,18373.0,463.00,27425.0
43771,367.0,48.0,24.0,13838.0,463.00,8483.0
43849,348.0,26.0,24.0,3595.0,464.00,6407.0
43927,368.0,49.0,24.0,4048.0,464.00,5986.0
44005,367.0,25.0,24.0,4508.0,464.00,5818.0
44087,366.0,48.0,24.0,5031.0,464.00,5896.0
44164,369.0,25.0,24.0,4664.0,463.00,5798.0
44242,367.0,26.0,24.0,5138.0,464.00,5804.0
44319,365.0,49.0,24.0,5025.0,464.00,6304.0
44390,366.0,49.0,24.0,5193.0,464.00,6370.0
44463,366.0,49.0,24.0,5197.0,464.00,6327.0
44611,367.0,26.0,24.0,5206.0,464.00,6154.0
44684,366.0,49.0,24.0,5249.0,464.00,6134.0
44758,366.0,49.0,24.0,5159.0,464.00,6230.0
44832,367.0,49.0,24.0,5079.0,464.00,6358.0
44910,367.0,49.0,24.0,4979.0,463.00,6424.0
44984,368.0,49.0,24.0,4899.0,464.00,6415.0
45057,368.0,49.0,24.0,4691.0,464.00,6252.0
45127,368.0,48.0,24.0,4366.0,464.00,5997.0
45196,368.0,49.0,24.0,3463.0,464.00,6341.0
45266,367.0,49.0,24.0,2787.0,464.00,6239.0
45340,367.0,49.0,24.0,2975.0,464.00,6286.0
45409,367.0,49.0,24.0,2980.0,464.00,6529.0
45495,351.0,26.0,24.0,5858.0,464.00,8432.0
45573,352.0,49.0,24.0,4953.0,463.00,7690.0
45676,352.0,26.0,24.0,6547.0,464.00,17911.0
45778,370.0,49.0,24.0,8028.0,464.00,19368.0
45884,368.0,49.0,24.0,8681.0,464.00,20591.0
45991,367.0,49.0,24.0,6487.0,464.00,22068.0
46098,366.0,49.0,24.0,7021.0,464.00,20861.0
46208,365.0,49.0,24.0,8767.0,464.00,23858.0
46331,365.0,49.0,24.0,12356.0,464.00,24283.0
46478,349.0,26.0,24.0,10716.0,464.00,37814.0
46626,348.0,26.0,24.0,6471.0,464.00,38701.0
46769,347.0,26.0,24.0,5283.0,464.00,39303.0
46909,347.0,26.0,24.0,4598.0,464.00,39580.0
47048,347.0,26.0,24.0,4052.0,464.00,39003.0
47183,347.0,27.0,24.0,4001.0,464.00,39235.0
47319,347.0,26.0,24.0,3970.0,464.00,38221.0
47453,347.0,26.0,24.0,3844.0,464.00,37972.0
47584,346.0,26.0,24.0,3770.0,464.00,37677.0
47720,346.0,26.0,24.0,3739.0,464.00,37614.0
47851,346.0,26.0,24.0,3718.0,464.00,37232.0
47982,346.0,27.0,24.0,3669.0,464.00,37503.0
48113,346.0,27.0,24.0,3660.0,464.00,37820.0
48244,345.0,26.0,24.0,3588.0,464.00,37677.0
48375,345.0,26.0,24.0,3510.0,464.00,37249.0
48507,345.0,26.0,24.0,3502.0,464.00,37306.0
48640,346.0,26.0,24.0,3540.0,464.00,37459.0
48772,345.0,26.0,24.0,3644.0,464.00,37676.0
48903,346.0,26.0,24.0,3605.0,464.00,37117.0
49034,346.0,26.0,24.0,3574.0,464.00,37462.0
49165,347.0,26.0,24.0,3557.0,464.00,37635.0
49296,346.0,26.0,24.0,3551.0,464.00,37403.0
49427,345.0,26.0,24.0,3626.0,464.00,37417.0
49559,345.0,26.0,24.0,3665.0,464.00,37752.0
49694,345.0,26.0,24.0,3631.0,464.00,37193.0
49825,345.0,26.0,24.0,4075.0,464.00,36642.0
49956,345.0,26.0,24.0,4044.0,464.00,36470.0
50087,345.0,26.0,24.0,4187.0,464.00,36333.0
50218,344.0,27.0,24.0,4149.0,464.00,35951.0
50349,344.0,26.0,24.0,4204.0,464.00,35921.0
50484,345.0,26.0,24.0,5077.0,464.00,35883.0
50619,344.0,26.0,24.0,5188.0,464.00,36023.0
50755,344.0,26.0,24.0,5165.0,464.00,35953.0
50890,344.0,26.0,24.0,5191.0,464.00,36021.0
51025,344.0,26.0,24.0,5034.0,464.00,35892.0
51160,344.0,26.0,24.0,4239.0,464.00,36069.0
51291,344.0,26.0,24.0,4231.0,464.00,36174.0
51422,345.0,26.0,24.0,4241.0,464.00,36235.0
51553,344.0,26.0,24.0,4267.0,464.00,36412.0
51684,344.0,26.0,24.0,4262.0,464.00,36269.0
51819,344.0,26.0,24.0,4233.0,464.00,36021.0
51951,344.0,26.0,24.0,4245.0,464.00,35934.0
52082,345.0,26.0,24.0,4237.0,464.00,36008.0
52213,345.0,26.0,24.0,4236.0,464.00,36191.0
52343,344.0,26.0,24.0,4311.0,464.00,36315.0
52479,344.0,26.0,24.0,4278.0,464.00,35984.0
52610,344.0,26.0,24.0,4241.0,463.00,35735.0
52741,344.0,26.0,24.0,4225.0,463.00,35813.0
52872,345.0,26.0,24.0,4216.0,464.00,35901.0
53003,345.0,26.0,24.0,4156.0,464.00,35825.0
53134,344.0,26.0,24.0,4156.0,464.00,35855.0
53265,344.0,26.0,24.0,4114.0,464.00,35918.0
53396,345.0,26.0,24.0,4144.0,464.00,36044.0
53527,344.0,26.0,24.0,4103.0,461.00,35736.0
53658,344.0,26.0,24.0,4064.0,464.00,35589.0
53789,345.0,26.0,24.0,4096.0,464.00,35985.0
53919,344.0,26.0,24.0,4092.0,464.00,35725.0
54048,344.0,26.0,24.0,4026.0,464.00,35631.0
54178,346.0,26.0,24.0,4055.0,464.00,35748.0
54310,346.0,26.0,24.0,3991.0,464.00,35454.0
54437,346.0,26.0,24.0,4002.0,464.00,35710.0
54568,346.0,26.0,24.0,4044.0,464.00,35702.0
54699,345.0,26.0,24.0,4009.0,464.00,35554.0
54830,346.0,26.0,24.0,4054.0,464.00,35762.0
54957,345.0,26.0,24.0,3988.0,464.00,35407.0
55088,345.0,26.0,24.0,3973.0,464.00,35596.0
55219,345.0,26.0,24.0,3972.0,464.00,35456.0
55346,345.0,26.0,24.0,3928.0,464.00,35777.0
55477,345.0,26.0,24.0,3769.0,464.00,35480.0
55604,345.0,26.0,24.0,3763.0,464.00,35815.0
55731,345.0,26.0,24.0,3728.0,464.00,35350.0
55862,345.0,26.0,24.0,3766.0,464.00,35514.0
55989,345.0,26.0,24.0,3777.0,464.00,35447.0
56120,346.0,26.0,24.0,3824.0,464.00,35467.0
56247,345.0,26.0,24.0,3771.0,464.00,35431.0
56375,345.0,26.0,24.0,3771.0,464.00,35093.0
56501,345.0,26.0,24.0,3739.0,464.00,35273.0
56632,345.0,26.0,24.0,3700.0,464.00,35361.0
56759,346.0,26.0,24.0,3742.0,464.00,35330.0
56955,345.0,26.0,24.5,3703.0,464.00,35565.0
57082,346.0,26.0,24.5,3715.0,464.00,35300.0
57209,346.0,26.0,24.5,3715.0,464.00,35555.0
57340,345.0,26.0,24.5,3670.0,464.00,35603.0
57468,346.0,26.0,24.5,3718.0,464.00,35611.0
57594,345.0,26.0,24.5,3674.0,464.00,35702.0
57725,346.0,26.0,24.5,3622.0,464.00,35328.0
57852,346.0,26.0,24.5,3622.0,464.00,35316.0
57980,345.0,26.0,24.5,3574.0,464.00,35491.0
58107,345.0,26.0,24.5,3594.0,464.00,35441.0
58233,346.0,26.0,24.5,3607.0,464.00,35506.0
58360,345.0,26.0,24.5,3584.0,464.00,35590.0
58491,345.0,26.0,24.5,3572.0,464.00,35260.0
58618,346.0,26.0,24.5,3595.0,464.00,35178.0
58745,345.0,26.0,24.5,3564.0,464.00,35530.0
58872,345.0,26.0,24.5,3544.0,464.00,35522.0
58999,346.0,26.0,24.5,3561.0,464.00,35337.0
59129,346.0,26.0,24.5,3555.0,464.00,35441.0
59253,346.0,26.0,24.5,3511.0,464.00,35569.0
59380,346.0,26.0,24.5,3483.0,464.00,35246.0
59507,347.0,26.0,24.5,3527.0,464.00,35366.0
59635,346.0,26.0,24.5,3525.0,463.00,35572.0
59761,346.0,26.0,24.5,3476.0,464.00,35578.0
59889,346.0,26.0,24.5,3454.0,464.00,35294.0
60015,346.0,26.0,24.5,3447.0,464.00,35166.0
60142,346.0,26.0,24.5,3450.0,464.00,35206.0
60269,345.0,26.0,24.5,3458.0,464.00,35716.0
60396,345.0,26.0,24.5,3439.0,464.00,35456.0
60523,346.0,26.0,24.5,3452.0,464.00,35225.0
60650,346.0,26.0,24.5,3464.0,463.00,35155.0
60778,346.0,26.0,24.5,3441.0,464.00,35260.0
60904,345.0,26.0,24.5,3396.0,464.00,35386.0
61031,345.0,26.0,24.5,3439.0,464.00,35513.0
61158,346.0,26.0,24.5,3451.0,464.00,35190.0
61280,346.0,26.0,24.5,3479.0,464.00,35173.0
61408,346.0,26.0,24.5,3455.0,464.00,35218.0
61535,345.0,26.0,24.5,3435.0,464.00,35315.0
61662,345.0,26.0,24.5,3418.0,464.00,35522.0
61789,346.0,26.0,24.5,3445.0,464.00,35292.0
61915,346.0,26.0,24.5,3451.0,464.00,35229.0
62043,346.0,26.0,24.5,3448.0,464.00,35323.0
62169,345.0,26.0,24.5,3408.0,464.00,35403.0
62296,345.0,26.0,24.5,3392.0,464.00,35365.0
62423,346.0,26.0,24.5,3413.0,464.00,35480.0
62550,346.0,26.0,24.5,3447.0,464.00,35355.0
62677,345.0,26.0,24.5,3425.0,464.00,35655.0
62804,345.0,26.0,24.5,3389.0,464.00,35802.0
62931,345.0,26.0,24.5,3380.0,464.00,35494.0
63058,346.0,26.0,24.5,3408.0,464.00,35514.0
63185,346.0,26.0,24.5,3452.0,464.00,35754.0
63312,345.0,26.0,24.5,3427.0,464.00,35811.0
63439,346.0,26.0,24.5,3425.0,464.00,35500.0
63566,346.0,26.0,24.5,3462.0,464.00,35403.0
63693,346.0,26.0,24.5,3448.0,464.00,35530.0
63820,345.0,26.0,24.5,3481.0,464.00,35745.0
63947,346.0,26.0,24.5,3480.0,464.00,35391.0
64074,346.0,26.0,24.5,3506.0,464.00,35449.0
64204,346.0,26.0,24.5,3459.0,464.00,35529.0
64328,345.0,26.0,24.5,3427.0,464.00,35526.0
64455,346.0,26.0,24.5,3472.0,464.00,35435.0
64582,347.0,26.0,24.5,3502.0,464.00,35534.0
64709,346.0,26.0,24.5,3464.0,464.00,35672.0
64836,346.0,26.0,24.5,3447.0,464.00,35565.0
64963,346.0,26.0,24.5,3454.0,464.00,35355.0
65090,346.0,26.0,24.5,3448.0,464.00,35466.0
65217,346.0,26.0,24.5,3427.0,464.00,35941.0
65348,345.0,26.0,24.5,3396.0,464.00,35774.0
65475,346.0,26.0,24.5,3410.0,464.00,35563.0
65602,346.0,26.0,24.5,3392.0,464.00,35798.0
65729,345.0,26.0,24.5,3364.0,464.00,35890.0
65856,346.0,26.0,24.5,3342.0,464.00,35648.0
65982,346.0,26.0,24.5,3380.0,464.00,35677.0
66110,346.0,26.0,24.5,3412.0,464.00,35892.0
66237,345.0,26.0,24.5,3376.0,464.00,35943.0
66364,346.0,26.0,24.5,3376.0,464.00,35653.0
66490,346.0,26.0,24.5,3396.0,464.00,35561.0
66618,345.0,26.0,24.5,3385.0,464.00,35664.0
66744,345.0,26.0,24.5,3385.0,464.00,35962.0
66871,346.0,26.0,24.5,3420.0,464.00,35649.0
66998,346.0,26.0,24.5,3439.0,464.00,35725.0
67125,345.0,26.0,24.5,3425.0,464.00,35916.0
67252,346.0,26.0,24.5,3376.0,464.00,35656.0
67379,346.0,26.0,24.5,3383.0,464.00,35462.0
67506,346.0,26.0,24.5,3397.0,464.00,35719.0
67633,345.0,26.0,24.5,3408.0,464.00,36118.0
67764,345.0,26.0,24.5,3366.0,464.00,35930.0
67891,346.0,26.0,24.5,3305.0,464.00,36002.0
68018,346.0,26.0,24.5,3321.0,464.00,36239.0
68145,345.0,26.0,24.5,3320.0,464.00,36090.0
68272,346.0,26.0,24.5,3367.0,464.00,36033.0
68403,346.0,26.0,24.5,3619.0,464.00,36282.0
68538,346.0,26.0,24.5,5942.0,464.00,35972.0
68678,346.0,26.0,24.5,6247.0,464.00,36103.0
68813,347.0,26.0,24.5,4435.0,464.00,36109.0
68956,347.0,26.0,24.5,7919.0,464.00,35807.0
69112,347.0,26.0,24.5,12514.0,464.00,36044.0
69267,350.0,26.0,24.5,11116.0,464.00,35022.0
69423,353.0,26.0,24.5,12031.0,464.00,34258.0
69571,357.0,26.0,24.5,12968.0,464.00,33635.0
69718,356.0,26.0,24.5,11776.0,464.00,33303.0
69923,355.0,26.0,24.25,6593.0,464.00,34042.0
70054,353.0,26.0,24.25,5362.0,464.00,34173.0
70181,350.0,26.0,24.25,3988.0,464.00,34280.0
70307,349.0,26.0,24.25,3702.0,464.00,34519.0
70439,345.0,26.0,24.25,4316.0,464.00,34463.0
70566,347.0,26.0,24.25,3930.0,464.00,34962.0
70697,344.0,26.0,24.25,4412.0,464.00,34987.0
70848,347.0,26.0,24.25,12713.0,464.00,34431.0
71012,349.0,26.0,24.25,17478.0,464.00,33377.0
71176,351.0,26.0,24.25,18986.0,464.00,32371.0
71344,352.0,26.0,24.25,20105.0,464.00,32186.0
71512,352.0,26.0,24.25,20151.0,464.00,32301.0
71680,351.0,26.0,24.25,18950.0,464.00,33669.0
71823,349.0,26.0,24.25,9552.0,464.00,33895.0
71971,348.0,26.0,24.25,10130.0,464.00,34396.0
72118,348.0,26.0,24.25,9877.0,464.00,34401.0
72266,347.0,26.0,24.25,9561.0,464.00,34504.0
72409,346.0,26.0,24.25,9339.0,464.00,34626.0
72556,346.0,26.0,24.25,9478.0,464.00,34691.0
72704,346.0,26.0,24.25,9592.0,464.00,35014.0
72847,346.0,26.0,24.25,8540.0,464.00,34989.0
72990,346.0,26.0,24.25,8697.0,464.00,35386.0
73130,345.0,26.0,24.25,5718.0,464.00,35462.0
73261,345.0,26.0,24.25,5132.0,464.00,35172.0
73396,345.0,26.0,24.25,4426.0,464.00,35599.0
73523,344.0,26.0,24.25,3876.0,464.00,35592.0
73654,343.0,26.0,24.25,3896.0,464.00,35424.0
73785,344.0,26.0,24.25,4308.0,463.00,35376.0
73912,343.0,26.0,24.25,4246.0,463.00,34863.0
74043,343.0,26.0,24.25,4283.0,463.00,35257.0
74174,343.0,26.0,24.25,4395.0,463.00,35379.0
74305,342.0,26.0,24.25,4552.0,463.00,35235.0
74436,342.0,26.0,24.25,4392.0,463.00,35092.0
74567,343.0,26.0,24.25,4399.0,463.00,35204.0
74698,342.0,26.0,24.25,4401.0,463.00,35072.0
74825,342.0,26.0,24.25,4397.0,463.00,34938.0
74956,343.0,26.0,24.25,4345.0,463.00,34926.0
75090,342.0,26.0,24.25,4762.0,463.00,34149.0
75214,343.0,26.0,24.25,4408.0,463.00,33951.0
75341,344.0,26.0,24.25,4183.0,463.00,33616.0
75468,345.0,26.0,24.25,4181.0,463.00,33515.0
75596,346.0,26.0,24.25,4160.0,464.00,33119.0
75718,347.0,26.0,24.25,4241.0,464.00,32867.0
75845,347.0,26.0,24.25,4296.0,464.00,32900.0
75972,347.0,26.0,24.25,4321.0,464.00,33573.0
76103,344.0,26.0,24.25,4162.0,464.00,34934.0
76238,344.0,26.0,24.25,5975.0,464.00,34746.0
76374,348.0,26.0,24.25,6000.0,464.00,35097.0
76509,350.0,26.0,24.25,6020.0,464.00,35442.0
76648,349.0,26.0,24.25,5635.0,464.00,35590.0
76779,348.0,26.0,24.25,4510.0,464.00,35617.0
76910,349.0,26.0,24.25,4214.0,464.00,35619.0
77041,349.0,26.0,24.25,4315.0,464.00,35754.0
77172,348.0,26.0,24.25,4080.0,464.00,35400.0
77299,348.0,26.0,24.25,4010.0,464.00,35305.0
77430,349.0,26.0,24.25,3931.0,464.00,35223.0
77557,348.0,26.0,24.25,3882.0,464.00,35627.0
77688,349.0,26.0,24.25,3913.0,464.00,35384.0
77815,348.0,27.0,24.25,3781.0,464.00,35657.0
77946,348.0,26.0,24.25,3714.0,464.00,35329.0
78073,349.0,26.0,24.25,3710.0,464.00,35707.0
78200,348.0,26.0,24.25,3661.0,464.00,35421.0
78331,349.0,27.0,24.25,3752.0,464.00,35719.0
78458,348.0,27.0,24.25,3787.0,464.00,35590.0
78589,348.0,27.0,24.25,3841.0,464.00,35691.0
78716,347.0,26.0,24.25,3805.0,464.00,35552.0
78847,348.0,26.0,24.25,3841.0,464.00,35459.0
78974,347.0,26.0,24.25,3824.0,464.00,35670.0
79105,348.0,26.0,24.25,3854.0,464.00,35494.0
79232,347.0,26.0,24.25,3815.0,464.00,35525.0
79363,348.0,26.0,24.25,3930.0,464.00,35256.0
79490,348.0,26.0,24.25,3903.0,464.00,35371.0
79617,348.0,26.0,24.25,3901.0,464.00,35140.0
79748,348.0,26.0,24.25,3959.0,464.00,35615.0
79879,347.0,26.0,24.25,3934.0,464.00,35262.0
80007,347.0,26.0,24.25,3922.0,464.00,35489.0
80138,347.0,26.0,24.25,3907.0,464.00,35231.0
80267,348.0,26.0,24.25,3892.0,464.00,35514.0
80396,347.0,26.0,24.25,3886.0,464.00,35492.0
80522,347.0,26.0,24.25,3849.0,464.00,35778.0
80654,348.0,26.0,24.25,3740.0,464.00,35552.0
80781,348.0,26.0,24.25,3749.0,464.00,35974.0
80912,348.0,26.0,24.25,3704.0,464.00,35664.0
81039,348.0,26.0,24.25,3716.0,464.00,35987.0
81170,347.0,26.0,24.25,3727.0,464.00,35880.0
81297,347.0,26.0,24.25,3752.0,464.00,36067.0
81428,347.0,26.0,24.25,3732.0,464.00,35690.0
81555,347.0,26.0,24.25,3773.0,464.00,35917.0
81686,347.0,26.0,24.25,3819.0,464.00,35460.0
81817,348.0,26.0,24.25,3870.0,464.00,35963.0
81944,347.0,26.0,24.25,3874.0,464.00,35577.0
82075,347.0,26.0,24.25,3862.0,464.00,35799.0
82202,347.0,26.0,24.25,3862.0,464.00,35540.0
82333,347.0,26.0,24.25,3826.0,464.00,35686.0
82460,347.0,26.0,24.25,3841.0,464.00,35472.0
82591,347.0,26.0,24.25,3812.0,464.00,35904.0
82718,347.0,26.0,24.25,3812.0,464.00,35568.0
82849,347.0,26.0,24.25,3798.0,464.00,35812.0
82976,347.0,26.0,24.25,3788.0,464.00,35626.0
83107,347.0,26.0,24.25,3686.0,464.00,36030.0
83304,347.0,26.0,24.0,3618.0,464.00,35949.0
83431,347.0,26.0,24.0,3657.0,464.00,36043.0
83561,347.0,26.0,24.0,3715.0,464.00,35777.0
83688,347.0,26.0,24.0,3698.0,464.00,36077.0
83820,347.0,26.0,24.0,3763.0,464.00,35647.0
83947,347.0,26.0,24.0,3811.0,464.00,35803.0
84078,347.0,26.0,24.0,3842.0,464.00,35836.0
84209,347.0,26.0,24.0,3832.0,464.00,35798.0
84336,347.0,26.0,24.0,3857.0,464.00,35683.0
84467,347.0,26.0,24.0,3850.0,464.00,35656.0
84594,347.0,26.0,24.0,3891.0,464.00,35639.0
84725,347.0,26.0,24.0,3853.0,464.00,35489.0
84856,347.0,26.0,24.0,3964.0,464.00,35911.0
84983,347.0,26.0,24.0,3918.0,464.00,35585.0
85114,348.0,26.0,24.0,3854.0,464.00,35870.0
85241,347.0,26.0,24.0,3792.0,464.00,35449.0
85372,347.0,26.0,24.0,3791.0,464.00,35872.0
85502,347.0,26.0,24.0,3669.0,464.00,35636.0
85630,347.0,26.0,24.0,3678.0,464.00,36004.0
85757,347.0,26.0,24.0,3652.0,464.00,36025.0
85888,348.0,26.0,24.0,3651.0,464.00,35857.0
86015,347.0,26.0,24.0,3584.0,464.00,35871.0
86142,348.0,26.0,24.0,3639.0,464.00,35649.0
86273,347.0,26.0,24.0,3775.0,464.00,35536.0
86404,347.0,26.0,24.0,4325.0,464.00,35916.0
86535,347.0,26.0,24.0,4547.0,464.00,36039.0
86670,347.0,26.0,24.0,4794.0,464.00,35800.0
86805,347.0,26.0,24.0,5159.0,464.00,35781.0
86941,347.0,26.0,24.0,5470.0,464.00,35719.0
87076,348.0,26.0,24.0,5379.0,464.00,35502.0
87212,348.0,26.0,24.0,5260.0,464.00,35834.0
87346,347.0,26.0,24.0,5328.0,464.00,36117.0
87481,347.0,26.0,24.0,5211.0,464.00,35943.0
87616,348.0,26.0,24.0,5004.0,464.00,35785.0
87752,348.0,26.0,24.0,4968.0,464.00,35611.0
87887,347.0,26.0,24.0,4953.0,464.00,35586.0
88018,347.0,26.0,24.0,5013.0,464.00,36075.0
88153,347.0,26.0,24.0,5046.0,464.00,36068.0
88289,347.0,26.0,24.0,5055.0,464.00,36124.0
88423,348.0,26.0,24.0,5041.0,464.00,35875.0
88558,348.0,26.0,24.0,4984.0,464.00,35783.0
88694,348.0,26.0,24.0,4993.0,464.00,36109.0
88829,347.0,26.0,24.0,5033.0,464.00,36299.0
88964,347.0,26.0,24.0,5041.0,464.00,36210.0
89100,348.0,26.0,24.0,5047.0,464.00,35903.0
89234,347.0,26.0,24.0,5009.0,464.00,35754.0
89365,347.0,26.0,24.0,4966.0,464.00,35720.0
89500,347.0,26.0,24.0,5022.0,464.00,35900.0
89636,346.0,26.0,24.0,5025.0,464.00,35888.0
89771,346.0,26.0,24.0,5044.0,464.00,35930.0
89906,346.0,26.0,24.0,5044.0,464.00,35857.0
90037,347.0,26.0,24.0,5047.0,463.00,35680.0
90172,347.0,26.0,24.0,5077.0,464.00,35871.0
90307,347.0,26.0,24.0,5076.0,464.00,35615.0
90443,347.0,26.0,24.0,5031.0,464.00,35567.0
90578,347.0,26.0,24.0,5027.0,464.00,35534.0
90709,347.0,26.0,24.0,5031.0,464.00,35590.0
90847,347.0,26.0,24.0,5005.0,464.00,35546.0
90979,346.0,26.0,24.0,5086.0,464.00,36039.0
91114,347.0,26.0,24.0,5119.0,464.00,35804.0
91249,348.0,26.0,24.0,5113.0,464.00,35792.0
91380,348.0,26.0,24.0,5067.0,464.00,35647.0
91516,348.0,26.0,24.0,5027.0,464.00,35573.0
91651,347.0,26.0,24.0,4999.0,464.00,35737.0
91786,347.0,26.0,24.0,5068.0,464.00,36069.0
91921,346.0,26.0,24.0,5081.0,464.00,36048.0
92056,347.0,26.0,24.0,5092.0,464.00,35946.0
92191,347.0,26.0,24.0,5069.0,464.00,35720.0
92323,347.0,26.0,24.0,5043.0,464.00,35497.0
92458,347.0,26.0,24.0,5092.0,464.00,35683.0
92593,347.0,26.0,24.0,5111.0,464.00,35680.0
92728,346.0,26.0,24.0,5114.0,464.00,35804.0
92863,346.0,26.0,24.0,5109.0,464.00,35874.0
92994,346.0,26.0,24.0,5079.0,464.00,35698.0
93129,347.0,26.0,24.0,5089.0,464.00,35727.0
93264,347.0,26.0,24.0,5122.0,464.00,35660.0
93400,347.0,26.0,24.0,5101.0,464.00,35539.0
93535,347.0,26.0,24.0,5084.0,464.00,35538.0
93670,347.0,26.0,24.0,5067.0,464.00,35669.0
93802,346.0,26.0,24.0,5059.0,464.00,35635.0
93936,346.0,26.0,24.0,5101.0,464.00,36118.0
94071,346.0,26.0,24.0,5149.0,464.00,35904.0
94207,347.0,26.0,24.0,5101.0,464.00,35832.0
94342,347.0,26.0,24.0,5062.0,464.00,35767.0
94477,346.0,26.0,24.0,5046.0,463.00,35837.0
94612,346.0,26.0,24.0,5033.0,464.00,35964.0
94747,346.0,26.0,24.0,5135.0,464.00,36156.0
94882,347.0,26.0,24.0,5100.0,464.00,35853.0
95013,347.0,26.0,24.0,5083.0,464.00,35737.0
95149,347.0,26.0,24.0,5051.0,464.00,35657.0
95284,347.0,26.0,24.0,5034.0,464.00,35695.0
95419,346.0,26.0,24.0,5149.0,463.00,36098.0
95554,346.0,26.0,24.0,5210.0,463.00,35884.0
95689,347.0,26.0,24.0,5195.0,463.00,35680.0
95824,347.0,26.0,24.0,5152.0,464.00,35586.0
95960,347.0,26.0,24.0,5115.0,463.00,35598.0
96095,346.0,26.0,24.0,5139.0,463.00,35917.0
96233,346.0,26.0,24.0,5235.0,463.00,36010.0
96365,347.0,26.0,24.0,5203.0,463.00,35708.0
96500,348.0,26.0,24.0,5170.0,463.00,35500.0
96701,348.0,26.0,24.25,5111.0,464.00,35634.0
96836,347.0,26.0,24.25,5134.0,463.00,35798.0
96971,347.0,26.0,24.25,5241.0,463.00,36093.0
97106,347.0,26.0,24.25,5165.0,464.00,35773.0
97241,347.0,26.0,24.25,5128.0,464.00,35785.0
97377,346.0,26.0,24.25,5076.0,464.00,35930.0
97512,346.0,26.0,24.25,5090.0,464.00,35981.0
97647,346.0,26.0,24.25,5142.0,464.00,36180.0
97782,347.0,26.0,24.25,5164.0,464.00,35827.0
97917,347.0,26.0,24.25,5104.0,464.00,35689.0
98050,346.0,26.0,24.25,5080.0,464.00,35809.0
98184,346.0,26.0,24.25,5092.0,464.00,35819.0
98319,346.0,26.0,24.25,5113.0,464.00,35882.0
98454,346.0,26.0,24.25,5188.0,464.00,35975.0
98589,347.0,26.0,24.25,5136.0,464.00,35731.0
98724,347.0,26.0,24.25,5117.0,464.00,35623.0
98859,347.0,26.0,24.25,5101.0,464.00,35745.0
98994,346.0,26.0,24.25,5111.0,464.00,35670.0
99126,346.0,26.0,24.25,5160.0,464.00,36014.0
99261,346.0,26.0,24.25,5207.0,464.00,35817.0
99396,347.0,26.0,24.25,5163.0,464.00,35698.0
99531,347.0,26.0,24.25,5105.0,464.00,35697.0
99666,346.0,26.0,24.25,5093.0,464.00,35851.0
99801,346.0,26.0,24.25,5117.0,464.00,35882.0
99937,346.0,26.0,24.25,5172.0,464.00,36155.0
100072,346.0,26.0,24.25,5132.0,464.00,35724.0
100207,347.0,26.0,24.25,5097.0,464.00,35677.0
100342,346.0,26.0,24.25,5071.0,464.00,35714.0
100477,346.0,26.0,24.25,5079.0,464.00,35727.0
100612,346.0,26.0,24.25,5127.0,464.00,36060.0
100743,346.0,26.0,24.25,5157.0,464.00,35849.0
100879,347.0,26.0,24.25,5119.0,464.00,35609.0
101014,347.0,26.0,24.25,5071.0,464.00,35525.0
101149,347.0,26.0,24.25,5013.0,464.00,35477.0
101284,347.0,26.0,24.25,5026.0,464.00,35833.0
101419,346.0,26.0,24.25,5098.0,464.00,35904.0
101550,346.0,26.0,24.25,5111.0,464.00,35958.0
101688,346.0,26.0,24.25,5128.0,464.00,35766.0
101821,347.0,26.0,24.25,5084.0,464.00,35630.0
101956,347.0,26.0,24.25,5054.0,464.00,35702.0
102091,348.0,26.0,24.25,5097.0,464.00,35766.0
102226,347.0,26.0,24.25,5065.0,464.00,35946.0
102361,347.0,26.0,24.25,5085.0,464.00,36077.0
102492,346.0,26.0,24.25,5065.0,464.00,35897.0
102627,347.0,26.0,24.25,5059.0,464.00,35943.0
102763,347.0,26.0,24.25,5096.0,464.00,35691.0
102898,347.0,26.0,24.25,5044.0,464.00,35673.0
103033,346.0,26.0,24.25,5056.0,464.00,35664.0
103168,346.0,26.0,24.25,5075.0,464.00,35706.0
103299,346.0,26.0,24.25,5069.0,464.00,35886.0
103434,346.0,26.0,24.25,5155.0,464.00,35916.0
103569,347.0,26.0,24.25,5142.0,464.00,35686.0
103705,347.0,26.0,24.25,5127.0,464.00,35502.0
103840,347.0,26.0,24.25,5086.0,464.00,35368.0
103975,347.0,26.0,24.25,5073.0,464.00,35494.0
104106,346.0,26.0,24.25,5156.0,464.00,35874.0
104241,346.0,26.0,24.25,5159.0,464.00,35963.0
104376,346.0,26.0,24.25,5165.0,464.00,35887.0
104512,346.0,26.0,24.25,5127.0,464.00,35722.0
104647,346.0,26.0,24.25,5072.0,464.00,35491.0
104782,346.0,26.0,24.25,5156.0,464.00,35943.0
104917,346.0,26.0,24.25,5153.0,464.00,35955.0
105052,346.0,26.0,24.25,5177.0,464.00,35917.0
105187,346.0,26.0,24.25,5147.0,464.00,35662.0
105323,347.0,26.0,24.25,5101.0,464.00,35551.0
105458,347.0,26.0,24.25,5148.0,464.00,35698.0
105593,346.0,26.0,24.25,5157.0,464.00,35740.0
105724,346.0,26.0,24.25,5190.0,464.00,35837.0
105859,346.0,26.0,24.25,5181.0,464.00,35748.0
105994,347.0,26.0,24.25,5146.0,464.00,35564.0
106129,347.0,26.0,24.25,5181.0,464.00,35701.0
106264,347.0,26.0,24.25,5161.0,464.00,35517.0
106400,347.0,26.0,24.25,5136.0,464.00,35702.0
106535,346.0,26.0,24.25,5089.0,464.00,35744.0
106666,346.0,26.0,24.25,5092.0,464.00,35728.0
106801,346.0,26.0,24.25,5167.0,464.00,36029.0
106936,347.0,26.0,24.25,5193.0,464.00,35743.0
107074,347.0,26.0,24.25,5168.0,464.00,35760.0
107206,346.0,26.0,24.25,5122.0,464.00,35844.0
107342,347.0,26.0,24.25,5121.0,464.00,35674.0
107477,347.0,26.0,24.25,5176.0,464.00,35964.0
107612,347.0,27.0,24.25,5215.0,464.00,35649.0
107747,347.0,26.0,24.25,5169.0,464.00,35484.0
107878,347.0,26.0,24.25,5164.0,464.00,35375.0
108013,347.0,26.0,24.25,5117.0,464.00,35454.0
108149,347.0,26.0,24.25,5127.0,464.00,35599.0
108284,346.0,26.0,24.25,5230.0,464.00,35950.0
108419,346.0,26.0,24.25,5226.0,464.00,35741.0
108554,347.0,26.0,24.25,5209.0,464.00,35576.0
108689,347.0,26.0,24.25,5156.0,464.00,35387.0
108820,347.0,26.0,24.25,5135.0,464.00,35340.0
108955,347.0,26.0,24.25,5188.0,464.00,35775.0
109091,346.0,26.0,24.25,5237.0,464.00,35926.0
109226,346.0,26.0,24.25,5248.0,464.00,35733.0
109361,347.0,26.0,24.25,5212.0,464.00,35556.0
109496,347.0,26.0,24.25,5155.0,464.00,35391.0
109631,347.0,26.0,24.25,5125.0,464.00,35464.0
109766,346.0,26.0,24.25,5138.0,464.00,35844.0
109902,346.0,26.0,24.25,5235.0,464.00,36031.0
110037,346.0,26.0,24.25,5235.0,464.00,35775.0
110237,347.0,26.0,24.75,5151.0,464.00,35529.0
110372,347.0,26.0,24.75,5122.0,464.00,35500.0
110508,346.0,27.0,24.75,5126.0,464.00,35564.0
110643,346.0,27.0,24.75,5227.0,464.00,35932.0
110778,346.0,26.0,24.75,5244.0,464.00,35762.0
110913,347.0,26.0,24.75,5236.0,464.00,35471.0
111044,347.0,26.0,24.75,5189.0,464.00,35391.0
111179,347.0,26.0,24.75,5138.0,464.00,35337.0
111315,346.0,26.0,24.75,5126.0,464.00,35397.0
111450,346.0,26.0,24.75,5195.0,464.00,35841.0
111585,346.0,26.0,24.75,5262.0,464.00,35737.0
111720,346.0,26.0,24.75,5245.0,464.00,35547.0
111851,347.0,26.0,24.75,5210.0,464.00,35395.0
111986,347.0,26.0,24.75,5163.0,464.00,35204.0
112121,347.0,26.0,24.75,5115.0,464.00,35161.0
112257,347.0,26.0,24.75,5122.0,464.00,35393.0
112388,347.0,26.0,24.75,5189.0,464.00,35559.0
112525,346.0,26.0,24.75,5177.0,464.00,35617.0
112658,346.0,26.0,24.75,5211.0,464.00,35683.0
112793,347.0,26.0,24.75,5181.0,464.00,35523.0
112924,348.0,26.0,24.75,5143.0,464.00,35437.0
113059,348.0,26.0,24.75,5155.0,464.00,35477.0
113194,348.0,26.0,24.75,5231.0,464.00,35324.0
113330,347.0,26.0,24.75,5191.0,464.00,35225.0
113465,347.0,26.0,24.75,5223.0,464.00,35266.0
113596,347.0,27.0,24.75,5211.0,464.00,35296.0
113731,346.0,26.0,24.75,5176.0,464.00,35329.0
113866,346.0,27.0,24.75,5212.0,464.00,35606.0
114001,346.0,26.0,24.75,5286.0,464.00,35572.0
114132,347.0,26.0,24.75,5286.0,464.00,35357.0
114268,347.0,26.0,24.75,5268.0,464.00,35257.0
114403,347.0,26.0,24.75,5218.0,464.00,35098.0
114538,347.0,27.0,24.75,5174.0,464.00,35021.0
114669,347.0,26.0,24.75,5239.0,464.00,35229.0
114804,346.0,26.0,24.75,5277.0,464.00,35246.0
114939,346.0,26.0,24.75,5287.0,464.00,35246.0
115076,346.0,26.0,24.75,5278.0,464.00,35326.0
115206,346.0,26.0,24.75,5261.0,464.00,35329.0
115341,346.0,27.0,24.75,5256.0,464.00,35425.0
115476,346.0,26.0,24.75,5336.0,464.00,35602.0
115611,346.0,27.0,24.75,5310.0,464.00,35345.0
115746,347.0,26.0,24.75,5286.0,464.00,35208.0
115881,346.0,27.0,24.75,5275.0,464.00,35274.0
116012,346.0,26.0,24.75,5257.0,464.00,35189.0
116148,346.0,26.0,24.75,5300.0,464.00,35624.0
116283,346.0,26.0,24.75,5378.0,464.00,35454.0
116418,346.0,26.0,24.75,5358.0,464.00,35278.0
116553,347.0,26.0,24.75,5327.0,464.00,35068.0
116684,347.0,26.0,24.75,5319.0,464.00,34943.0
116819,347.0,26.0,24.75,5327.0,463.00,34843.0
116955,346.0,26.0,24.75,5409.0,470.00,35224.0
117090,346.0,26.0,24.75,5485.0,464.00,35164.0
117225,346.0,26.0,24.75,5492.0,464.00,35281.0
117360,346.0,26.0,24.75,5514.0,464.00,35119.0
117491,347.0,26.0,24.75,5487.0,463.00,34909.0
117626,347.0,26.0,24.75,5488.0,464.00,34926.0
117761,346.0,26.0,24.75,5576.0,464.00,35200.0
117899,346.0,27.0,24.75,5559.0,463.00,35409.0
118032,345.0,26.0,24.75,5617.0,464.00,35502.0
118167,347.0,26.0,24.75,5534.0,464.00,35065.0
118302,348.0,26.0,24.75,5430.0,464.00,34955.0
118437,347.0,26.0,24.75,5463.0,464.00,35330.0
118572,346.0,26.0,24.75,5493.0,464.00,35378.0
118707,346.0,26.0,24.75,5533.0,464.00,35241.0
118842,347.0,26.0,24.75,5538.0,464.00,35008.0
118978,347.0,26.0,24.75,5483.0,464.00,34816.0
119113,347.0,26.0,24.75,5483.0,464.00,34829.0
119244,347.0,26.0,24.75,5537.0,464.00,35160.0
119379,346.0,26.0,24.75,5605.0,464.00,35219.0
119514,346.0,26.0,24.75,5615.0,464.00,35164.0
119649,346.0,26.0,24.75,5572.0,464.00,34983.0
119785,347.0,26.0,24.75,5524.0,464.00,34800.0
119920,347.0,26.0,24.75,5513.0,464.00,34813.0
120055,347.0,26.0,24.75,5548.0,464.00,35137.0
120190,346.0,27.0,24.75,5605.0,464.00,35242.0
120325,346.0,26.0,24.75,5629.0,464.00,35059.0
120460,347.0,27.0,24.75,5597.0,464.00,34872.0
120591,347.0,26.0,24.75,5563.0,464.00,34758.0
120727,347.0,27.0,24.75,5501.0,464.00,34819.0
120862,346.0,26.0,24.75,5499.0,464.00,34952.0
120997,346.0,26.0,24.75,5621.0,464.00,35333.0
121132,346.0,27.0,24.75,5601.0,464.00,35130.0
121267,346.0,26.0,24.75,5590.0,464.00,34964.0
121402,347.0,27.0,24.75,5538.0,464.00,34761.0
121537,347.0,26.0,24.75,5495.0,464.00,34719.0
121669,346.0,27.0,24.75,5500.0,464.00,34769.0
121804,346.0,27.0,24.75,5614.0,464.00,34958.0
121939,346.0,27.0,24.75,5629.0,464.00,34859.0
122074,346.0,27.0,24.75,5667.0,464.00,34820.0
122205,346.0,26.0,24.75,5638.0,464.00,34640.0
122340,347.0,26.0,24.75,5576.0,464.00,34567.0
122476,347.0,27.0,24.75,5539.0,464.00,34549.0
122612,347.0,26.0,24.75,5640.0,464.00,34678.0
122742,347.0,26.0,24.75,5610.0,464.00,34612.0
122877,347.0,26.0,24.75,5598.0,464.00,34672.0
123012,347.0,27.0,24.75,5380.0,464.00,34826.0
123135,344.0,26.0,24.75,12196.0,464.00,17428.0
123228,350.0,27.0,24.75,6990.0,464.00,7820.0
123303,384.0,27.0,24.75,4208.0,464.00,6780.0
123381,364.0,27.0,24.75,4796.0,464.00,6301.0
123528,372.0,26.0,24.25,5619.0,464.00,6038.0
123598,360.0,49.0,24.25,5594.0,464.00,6113.0
123684,359.0,49.0,24.25,5680.0,464.00,6025.0
123766,359.0,27.0,24.25,5647.0,464.00,5934.0
123848,357.0,27.0,24.25,5724.0,464.00,5819.0
123926,357.0,27.0,24.25,5786.0,464.00,5496.0
124003,340.0,27.0,24.25,5182.0,464.00,5324.0
124078,341.0,49.0,24.25,5054.0,464.00,4861.0
124147,362.0,49.0,24.25,4680.0,464.00,4778.0
124216,351.0,49.0,24.25,3977.0,464.00,3964.0
124282,372.0,49.0,24.25,3569.0,464.00,3710.0
124352,371.0,27.0,24.25,3204.0,464.00,3237.0
124417,356.0,27.0,24.25,3275.0,464.00,3123.0
124486,356.0,48.0,24.25,3238.0,464.00,3078.0
124552,356.0,49.0,24.25,3144.0,464.00,3072.0
124618,357.0,49.0,24.25,3063.0,464.00,3145.0
124683,357.0,49.0,24.25,3063.0,464.00,3292.0
124749,357.0,49.0,24.25,3182.0,464.00,3438.0
124814,356.0,49.0,24.25,3393.0,464.00,3409.0
124880,356.0,49.0,24.25,3437.0,464.00,3194.0
124941,356.0,49.0,24.25,3238.0,464.00,3026.0
125007,357.0,49.0,24.25,3027.0,464.00,3110.0
125072,357.0,49.0,24.25,3084.0,464.00,3359.0
125138,357.0,49.0,24.25,3338.0,464.00,3422.0
125203,356.0,49.0,24.25,3421.0,464.00,3164.0
125269,356.0,49.0,24.25,3149.0,464.00,3004.0
125334,357.0,49.0,24.25,3005.0,464.00,3220.0
125396,374.0,49.0,24.25,3252.0,464.00,3430.0
125461,357.0,49.0,24.25,3431.0,464.00,3225.0
125527,356.0,49.0,24.25,3214.0,464.00,3006.0
125592,357.0,49.0,24.25,3009.0,464.00,3149.0
125658,358.0,49.0,24.25,3148.0,464.00,3410.0
125719,357.0,49.0,24.25,3408.0,464.00,3357.0
125785,356.0,49.0,24.25,3354.0,464.00,3077.0
125850,357.0,49.0,24.25,3085.0,464.00,3039.0
125916,357.0,49.0,24.25,3032.0,464.00,3267.0
125981,357.0,49.0,24.25,3237.0,464.00,3443.0
126050,356.0,49.0,24.25,3437.0,464.00,3298.0
126109,356.0,49.0,24.25,3319.0,464.00,3052.0
126174,357.0,49.0,24.25,3060.0,464.00,3057.0
126240,358.0,49.0,24.25,3048.0,464.00,3296.0
126305,358.0,49.0,24.25,3291.0,464.00,3435.0
126371,357.0,49.0,24.25,3437.0,464.00,3229.0
126436,357.0,49.0,24.25,3246.0,464.00,3021.0
126502,357.0,49.0,24.25,3028.0,464.00,3110.0
126563,358.0,49.0,24.25,3089.0,464.00,3358.0
126629,357.0,49.0,24.25,3349.0,464.00,3424.0
126694,356.0,49.0,24.25,3433.0,464.00,3190.0
126760,356.0,49.0,24.25,3211.0,464.00,3021.0
126825,357.0,49.0,24.25,3018.0,464.00,3132.0
126891,358.0,49.0,24.25,3116.0,464.00,3387.0
126957,357.0,49.0,24.25,3379.0,464.00,3400.0
127018,356.0,49.0,24.25,3403.0,464.00,3128.0
127083,356.0,49.0,24.25,3135.0,464.00,3014.0
127149,357.0,49.0,24.25,3011.0,464.00,3215.0
127214,358.0,49.0,24.25,3214.0,464.00,3427.0
127280,357.0,49.0,24.25,3424.0,464.00,3304.0
127341,356.0,49.0,24.25,3299.0,464.00,3032.0
127408,357.0,49.0,24.25,3035.0,464.00,3080.0
127472,358.0,49.0,24.25,3074.0,464.00,3347.0
127538,357.0,49.0,24.25,3346.0,464.00,3412.0
127603,356.0,49.0,24.25,3413.0,464.00,3154.0
127669,356.0,49.0,24.25,3161.0,464.00,3011.0
127730,357.0,49.0,24.25,3009.0,464.00,3189.0
127796,358.0,49.0,24.25,3183.0,464.00,3418.0
127861,357.0,49.0,24.25,3417.0,464.00,3329.0
127927,356.0,49.0,24.25,3336.0,464.00,3060.0
127993,357.0,49.0,24.25,3064.0,464.00,3048.0
128058,358.0,49.0,24.25,3048.0,464.00,3305.0
128120,358.0,49.0,24.25,3296.0,464.00,3435.0
128185,356.0,49.0,24.25,3437.0,464.00,3219.0
128250,356.0,49.0,24.25,3228.0,464.00,3014.0
128316,357.0,49.0,24.25,3014.0,464.00,3126.0
128382,358.0,49.0,24.25,3123.0,464.00,3387.0
128447,357.0,49.0,24.25,3391.0,464.00,3380.0
128508,356.0,49.0,24.25,3388.0,464.00,3110.0
128574,356.0,49.0,24.25,3115.0,464.00,3021.0
128643,358.0,49.0,24.25,3019.0,464.00,3236.0
128706,358.0,49.0,24.25,3224.0,464.00,3442.0
128771,357.0,49.0,24.25,3422.0,464.00,3303.0
128836,357.0,49.0,24.25,3284.0,464.00,3030.0
128898,358.0,49.0,24.25,3034.0,464.00,3086.0
128964,358.0,49.0,24.25,3081.0,464.00,3347.0
129029,358.0,49.0,24.25,3330.0,464.00,3418.0
129094,357.0,49.0,24.25,3421.0,464.00,3168.0
129160,357.0,49.0,24.25,3177.0,464.00,3011.0
129225,358.0,48.0,24.25,3010.0,464.00,3175.0
129287,358.0,49.0,24.25,3165.0,464.00,3413.0
129352,357.0,49.0,24.25,3405.0,464.00,3364.0
129418,356.0,49.0,24.25,3379.0,464.00,3101.0
129483,357.0,49.0,24.25,3106.0,464.00,3023.0
129549,358.0,49.0,24.25,3021.0,464.00,3250.0
129614,358.0,49.0,24.25,3242.0,464.00,3437.0
129676,357.0,49.0,24.25,3434.0,464.00,3263.0
129741,356.0,49.0,24.25,3271.0,464.00,3028.0
129807,357.0,49.0,24.25,3027.0,464.00,3090.0
129873,358.0,49.0,24.25,3089.0,464.00,3361.0
129938,357.0,49.0,24.25,3358.0,464.00,3408.0
130003,356.0,49.0,24.25,3405.0,464.00,3140.0
130065,356.0,49.0,24.25,3143.0,464.00,3014.0
130204,357.0,26.0,24.0,3437.0,464.00,3311.0
130266,356.0,49.0,24.0,3329.0,464.00,3059.0
130331,357.0,49.0,24.0,3067.0,464.00,3051.0
130397,358.0,49.0,24.0,3044.0,464.00,3300.0
130462,358.0,49.0,24.0,3273.0,464.00,3451.0
130528,357.0,49.0,24.0,3437.0,464.00,3295.0
130593,356.0,49.0,24.0,3315.0,464.00,3052.0
130659,357.0,49.0,24.0,3063.0,464.00,3059.0
130725,358.0,49.0,24.0,3047.0,464.00,3301.0
130786,358.0,49.0,24.0,3277.0,464.00,3437.0
130851,357.0,49.0,24.0,3438.0,464.00,3253.0
130917,356.0,49.0,24.0,3265.0,464.00,3027.0
130983,357.0,49.0,24.0,3027.0,464.00,3098.0
131048,358.0,49.0,24.0,3088.0,464.00,3363.0
131114,357.0,49.0,24.0,3343.0,464.00,3422.0
131175,356.0,49.0,24.0,3437.0,464.00,3203.0
131241,356.0,49.0,24.0,3240.0,464.00,3026.0
131309,357.0,49.0,24.0,3031.0,464.00,3106.0
131372,358.0,49.0,24.0,3085.0,464.00,3358.0
131437,357.0,49.0,24.0,3341.0,464.00,3421.0
131503,356.0,49.0,24.0,3418.0,464.00,3168.0
131568,357.0,49.0,24.0,3153.0,464.00,3006.0
131630,358.0,49.0,24.0,3013.0,464.00,3208.0
131695,358.0,49.0,24.0,3221.0,464.00,3435.0
131761,357.0,49.0,24.0,3438.0,464.00,3301.0
131826,356.0,49.0,24.0,3329.0,464.00,3065.0
131892,357.0,49.0,24.0,3084.0,464.00,3049.0
131957,358.0,49.0,24.0,3031.0,464.00,3270.0
132023,358.0,49.0,24.0,3248.0,464.00,3435.0
132084,357.0,49.0,24.0,3434.0,464.00,3301.0
132150,356.0,49.0,24.0,3312.0,464.00,3046.0
132216,357.0,49.0,24.0,3053.0,464.00,3064.0
132281,357.0,49.0,24.0,3052.0,464.00,3312.0
132346,358.0,49.0,24.0,3282.0,464.00,3435.0
132412,356.0,49.0,24.0,3435.0,464.00,3256.0
132473,356.0,49.0,24.0,3279.0,464.00,3031.0
132539,357.0,49.0,24.0,3039.0,464.00,3084.0
132605,358.0,49.0,24.0,3069.0,464.00,3338.0
132670,357.0,49.0,24.0,3305.0,464.00,3442.0
132735,356.0,49.0,24.0,3442.0,464.00,3241.0
132801,356.0,49.0,24.0,3265.0,464.00,3032.0
132866,357.0,49.0,24.0,3042.0,464.00,3085.0
132933,358.0,49.0,24.0,3067.0,464.00,3336.0
132994,357.0,49.0,24.0,3311.0,464.00,3442.0
133059,356.0,49.0,24.0,3445.0,464.00,3257.0
133124,356.0,49.0,24.0,3290.0,464.00,3039.0
133190,357.0,49.0,24.0,3051.0,464.00,3073.0
133256,358.0,49.0,24.0,3057.0,464.00,3320.0
133321,357.0,49.0,24.0,3287.0,464.00,3451.0
133387,356.0,49.0,24.0,3442.0,464.00,3284.0
133452,356.0,49.0,24.0,3307.0,464.00,3049.0
133514,357.0,49.0,24.0,3065.0,464.00,3061.0
133579,357.0,49.0,24.0,3047.0,464.00,3299.0
133645,357.0,49.0,24.0,3253.0,464.00,3446.0
133710,356.0,49.0,24.0,3439.0,464.00,3333.0
133776,356.0,49.0,24.0,3361.0,464.00,3086.0
133841,356.0,49.0,24.0,3119.0,464.00,3036.0
133910,357.0,49.0,24.0,3022.0,464.00,3214.0
133972,358.0,49.0,24.0,3173.0,464.00,3420.0
134038,357.0,49.0,24.0,3393.0,464.00,3395.0
134099,356.0,49.0,24.0,3425.0,464.00,3160.0
134165,356.0,49.0,24.0,3212.0,464.00,3022.0
134230,358.0,49.0,24.0,3025.0,464.00,3132.0
134296,358.0,49.0,24.0,3102.0,464.00,3379.0
134364,357.0,49.0,24.0,3345.0,464.00,3434.0
134427,356.0,49.0,24.0,3448.0,464.00,3233.0
134493,355.0,49.0,24.0,3290.0,464.00,3044.0
134558,356.0,49.0,24.0,3073.0,464.00,3070.0
134624,357.0,49.0,24.0,3040.0,464.00,3269.0
134689,357.0,49.0,24.0,3228.0,464.00,3446.0
134750,356.0,49.0,24.0,3433.0,464.00,3357.0
134817,355.0,49.0,24.0,3400.0,464.00,3128.0
134881,356.0,49.0,24.0,3168.0,464.00,3026.0
134947,357.0,49.0,24.0,3025.0,464.00,3154.0
135013,357.0,49.0,24.0,3112.0,464.00,3387.0
135078,356.0,49.0,24.0,3332.0,464.00,3458.0
135144,356.0,49.0,24.0,3456.0,464.00,3288.0
135209,355.0,49.0,24.0,3342.0,464.00,3073.0
135275,356.0,49.0,24.0,3115.0,464.00,3044.0
135340,357.0,49.0,24.0,3032.0,464.00,3217.0
135406,357.0,49.0,24.0,3149.0,464.00,3409.0
135471,356.0,49.0,24.0,3362.0,464.00,3437.0
135533,355.0,49.0,24.0,3448.0,464.00,3246.0
135598,355.0,49.0,24.0,3309.0,464.00,3056.0
135664,356.0,49.0,24.0,3090.0,464.00,3059.0
135729,357.0,49.0,24.0,3035.0,464.00,3254.0
135795,357.0,49.0,24.0,3200.0,464.00,3441.0
135861,356.0,49.0,24.0,3413.0,464.00,3396.0
135926,356.0,49.0,24.0,3424.0,464.00,3173.0
135991,356.0,49.0,24.0,3215.0,464.00,3021.0
136057,357.0,49.0,24.0,3030.0,464.00,3126.0
136123,357.0,49.0,24.0,3086.0,464.00,3364.0
136188,357.0,49.0,24.0,3324.0,464.00,3439.0
136250,356.0,49.0,24.0,3438.0,464.00,3250.0
136315,356.0,49.0,24.0,3282.0,464.00,3038.0
136381,356.0,49.0,24.0,3056.0,464.00,3080.0
136446,357.0,49.0,24.0,3051.0,464.00,3308.0
136515,357.0,49.0,24.0,3269.0,464.00,3451.0
136577,356.0,49.0,24.0,3441.0,464.00,3309.0
136643,356.0,49.0,24.0,3345.0,464.00,3073.0
136778,357.0,50.0,24.0,3257.0,464.00,3439.0
136843,357.0,49.0,24.0,3442.0,464.00,3298.0
136909,357.0,49.0,24.0,3326.0,464.00,3057.0
136975,357.0,49.0,24.0,3078.0,464.00,3052.0
137040,358.0,49.0,24.0,3038.0,464.00,3277.0
137101,358.0,49.0,24.0,3241.0,464.00,3446.0
137167,357.0,49.0,24.0,3433.0,464.00,3342.0
137233,357.0,49.0,24.0,3354.0,464.00,3076.0
137298,357.0,49.0,24.0,3090.0,464.00,3040.0
137364,358.0,49.0,24.0,3035.0,464.00,3259.0
137429,358.0,49.0,24.0,3200.0,464.00,3443.0
137495,358.0,49.0,24.0,3395.0,464.00,3413.0
137560,357.0,49.0,24.0,3433.0,464.00,3186.0
137626,357.0,49.0,24.0,3216.0,464.00,3023.0
137687,358.0,49.0,24.0,3027.0,464.00,3114.0
137753,358.0,49.0,24.0,3094.0,464.00,3370.0
137818,358.0,49.0,24.0,3342.0,464.00,3421.0
137884,357.0,49.0,24.0,3431.0,464.00,3203.0
137949,357.0,49.0,24.0,3241.0,464.00,3026.0
138015,358.0,49.0,24.0,3030.0,464.00,3106.0
138080,358.0,49.0,24.0,3082.0,464.00,3346.0
138146,358.0,49.0,24.0,3330.0,464.00,3433.0
138207,352.0,49.0,24.0,3464.0,464.00,3290.0
