Time,Light,ECG,Temp,OXI,Battery Voltage (mV), IR Value, SPO2, Fail safe
14,456.0,34.0,28.25,1524.0,441.00,1847.0,1847.0
17,456.0,34.0,28.25,1524.0,441.00,1847.0,1847.0
1175,455.0,34.0,0.0,1597.0,438.00,1959.0,1950.0
1244,458.0,35.0,0.0,1593.0,438.00,1933.0,1933.0
1314,458.0,30.0,0.0,1564.0,437.00,1905.0,1904.0
1383,458.0,30.0,0.0,1557.0,437.00,1898.0,1900.0
1450,458.0,30.0,0.0,1566.0,437.00,1904.0,1909.0
1518,458.0,30.0,0.0,1561.0,437.00,1901.0,1894.0
1588,458.0,30.0,0.0,1545.0,437.00,1883.0,1883.0
1654,455.0,29.0,0.0,1537.0,437.00,1873.0,1873.0
1723,455.0,34.0,0.0,1531.0,437.00,1864.0,1864.0
1795,455.0,34.0,0.0,1528.0,437.00,1854.0,1852.0
1855,455.0,34.0,0.0,1526.0,438.00,1859.0,1858.0
1924,455.0,34.0,0.0,1528.0,438.00,1854.0,1852.0
1990,455.0,34.0,0.0,1548.0,438.00,1892.0,1897.0
2059,458.0,30.0,0.0,1600.0,438.00,1954.0,1954.0
2129,458.0,35.0,0.0,1587.0,438.00,1934.0,1933.0
2198,458.0,30.0,0.0,1574.0,438.00,1921.0,1921.0
2271,458.0,30.0,0.0,1568.0,438.00,1912.0,1912.0
2338,458.0,30.0,0.0,1574.0,438.00,1919.0,1913.0
2408,458.0,30.0,0.0,1569.0,438.00,1904.0,1904.0
2473,458.0,30.0,0.0,1560.0,438.00,1897.0,1896.0
2542,458.0,30.0,0.0,1549.0,438.00,1889.0,1888.0
2612,459.0,30.0,0.0,1551.0,438.00,1883.0,1883.0
2677,459.0,30.0,0.0,1551.0,438.00,1881.0,1883.0
2747,455.0,30.0,0.0,1540.0,438.00,1875.0,1875.0
2813,455.0,34.0,0.0,1534.0,438.00,1871.0,1877.0
2882,459.0,30.0,0.0,1566.0,438.00,1919.0,1925.0
2952,459.0,30.0,0.0,1597.0,438.00,1955.0,1947.0
3022,459.0,30.0,0.0,1579.0,438.00,1923.0,1923.0
3091,458.0,30.0,0.0,1572.0,438.00,1909.0,1908.0
3157,458.0,30.0,0.0,1583.0,438.00,1925.0,1923.0
3226,458.0,30.0,0.0,1577.0,438.00,1927.0,1922.0
3296,459.0,30.0,0.0,1576.0,438.00,1912.0,1913.0
3365,458.0,30.0,0.0,1568.0,438.00,1909.0,1909.0
3435,458.0,30.0,0.0,1560.0,438.00,1900.0,1901.0
3501,459.0,30.0,0.0,1561.0,438.00,1894.0,1894.0
3572,458.0,30.0,0.0,1553.0,438.00,1891.0,1891.0
3640,459.0,30.0,0.0,1556.0,438.00,1888.0,1894.0
3714,459.0,30.0,0.0,1583.0,438.00,1933.0,1942.0
3779,455.0,34.0,0.0,1615.0,438.00,1971.0,1968.0
3849,455.0,34.0,0.0,1606.0,438.00,1948.0,1950.0
3918,459.0,30.0,0.0,1598.0,438.00,1939.0,1939.0
3989,459.0,30.0,0.0,1598.0,438.00,1940.0,1942.0
4058,459.0,30.0,0.0,1591.0,438.00,1939.0,1938.0
4127,459.0,30.0,0.0,1591.0,438.00,1930.0,1927.0
4197,459.0,30.0,0.0,1586.0,438.00,1927.0,1922.0
4262,459.0,30.0,0.0,1578.0,438.00,1914.0,1914.0
4332,459.0,30.0,0.0,1565.0,438.00,1904.0,1902.0
4401,459.0,30.0,0.0,1564.0,438.00,1894.0,1900.0
4467,459.0,30.0,0.0,1551.0,438.00,1887.0,1888.0
4537,459.0,30.0,0.0,1574.0,438.00,1923.0,1930.0
4606,462.0,34.0,0.0,1616.0,438.00,1971.0,1976.0
4692,460.0,34.0,0.0,1604.0,438.00,1952.0,1951.0
4746,463.0,31.0,0.0,1591.0,438.00,1942.0,1935.0
4815,463.0,30.0,0.0,1586.0,438.00,1933.0,1931.0
4885,463.0,30.0,0.0,1586.0,438.00,1933.0,1931.0
4954,463.0,30.0,0.0,1583.0,438.00,1918.0,1923.0
5024,463.0,30.0,0.0,1570.0,438.00,1912.0,1909.0
5094,463.0,30.0,0.0,1558.0,438.00,1896.0,1894.0
5159,463.0,30.0,0.0,1573.0,438.00,1904.0,1904.0
5229,463.0,30.0,0.0,1572.0,438.00,1904.0,1905.0
5299,463.0,30.0,0.0,1569.0,438.00,1908.0,1900.0
5368,463.0,30.0,0.0,1582.0,438.00,1925.0,1929.0
5438,459.0,34.0,0.0,1628.0,438.00,1976.0,1976.0
5507,460.0,34.0,0.0,1618.0,438.00,1961.0,1959.0
5577,460.0,34.0,0.0,1629.0,438.00,1955.0,1961.0
5647,460.0,34.0,0.0,1606.0,438.00,1956.0,1956.0
5720,460.0,34.0,0.0,1627.0,437.00,1960.0,1960.0
5790,460.0,34.0,0.0,1603.0,438.00,1951.0,1950.0
5860,463.0,31.0,0.0,1600.0,437.00,1936.0,1938.0
5929,463.0,30.0,0.0,1583.0,438.00,1926.0,1925.0
5995,463.0,30.0,0.0,1585.0,438.00,1918.0,1926.0
6064,463.0,30.0,0.0,1576.0,438.00,1915.0,1914.0
6134,463.0,30.0,0.0,1570.0,438.00,1922.0,1914.0
6204,463.0,30.0,0.0,1608.0,438.00,1964.0,1967.0
6273,460.0,34.0,0.0,1627.0,438.00,1978.0,1976.0
6347,460.0,34.0,0.0,1607.0,438.00,1955.0,1954.0
6417,463.0,35.0,0.0,1599.0,438.00,1952.0,1947.0
6495,463.0,30.0,0.0,1604.0,438.00,1946.0,1952.0
6556,463.0,30.0,0.0,1603.0,438.00,1943.0,1963.0
6626,463.0,30.0,0.0,1594.0,438.00,1933.0,1931.0
6695,463.0,30.0,0.0,1582.0,438.00,1929.0,1922.0
6761,463.0,30.0,0.0,1577.0,438.00,1917.0,1917.0
6830,463.0,30.0,0.0,1572.0,438.00,1910.0,1909.0
6900,463.0,30.0,0.0,1558.0,438.00,1889.0,1888.0
6970,463.0,30.0,0.0,1544.0,438.00,1879.0,1879.0
7035,463.0,30.0,0.0,1562.0,438.00,1906.0,1904.0
7105,463.0,30.0,0.0,1604.0,438.00,1961.0,1960.0
7174,460.0,34.0,0.0,1606.0,438.00,1946.0,1944.0
7244,463.0,30.0,0.0,1591.0,438.00,1930.0,1929.0
7314,463.0,30.0,0.0,1581.0,438.00,1930.0,1923.0
7383,463.0,30.0,0.0,1581.0,438.00,1925.0,1925.0
7453,463.0,30.0,0.0,1573.0,438.00,1919.0,1914.0
7523,463.0,30.0,0.0,1569.0,438.00,1908.0,1902.0
7589,463.0,30.0,0.0,1557.0,438.00,1894.0,1894.0
7658,463.0,30.0,0.0,1551.0,438.00,1887.0,1884.0
7724,463.0,30.0,0.0,1547.0,438.00,1881.0,1880.0
7793,460.0,33.0,0.0,1541.0,438.00,1875.0,1873.0
7860,460.0,34.0,0.0,1535.0,438.00,1868.0,1868.0
7928,460.0,34.0,0.0,1528.0,438.00,1860.0,1862.0
7994,460.0,34.0,0.0,1535.0,438.00,1863.0,1864.0
8129,463.0,34.0,28.25,1589.0,438.00,1934.0,1933.0
8199,463.0,30.0,28.25,1578.0,438.00,1915.0,1914.0
8268,463.0,30.0,28.25,1568.0,438.00,1900.0,1901.0
8338,463.0,30.0,28.25,1566.0,438.00,1901.0,1908.0
8403,463.0,30.0,28.25,1562.0,438.00,1900.0,1896.0
8473,463.0,30.0,28.25,1569.0,438.00,1908.0,1900.0
8542,463.0,30.0,28.25,1555.0,438.00,1892.0,1891.0
8608,463.0,30.0,28.25,1555.0,438.00,1885.0,1885.0
8677,463.0,29.0,28.25,1547.0,438.00,1881.0,1881.0
8746,460.0,34.0,28.25,1540.0,439.00,1873.0,1873.0
8813,460.0,34.0,28.25,1539.0,439.00,1870.0,1870.0
8878,460.0,34.0,28.25,1536.0,439.00,1867.0,1867.0
8948,460.0,34.0,28.25,1560.0,439.00,1906.0,1909.0
9019,463.0,30.0,28.25,1590.0,439.00,1934.0,1934.0
9087,464.0,30.0,28.25,1581.0,439.00,1914.0,1913.0
9157,464.0,30.0,28.25,1573.0,439.00,1905.0,1910.0
9222,463.0,30.0,28.25,1574.0,439.00,1908.0,1914.0
9299,463.0,30.0,28.25,1576.0,439.00,1908.0,1908.0
9361,463.0,30.0,28.25,1569.0,439.00,1898.0,1900.0
9427,463.0,30.0,28.25,1561.0,439.00,1897.0,1892.0
9497,464.0,30.0,28.25,1551.0,439.00,1884.0,1884.0
9566,464.0,34.0,28.25,1545.0,439.00,1880.0,1879.0
9632,459.0,34.0,28.25,1548.0,439.00,1881.0,1873.0
9701,456.0,34.0,28.25,1543.0,439.00,1873.0,1867.0
9767,456.0,34.0,28.25,1530.0,439.00,1860.0,1860.0
9837,456.0,34.0,28.25,1534.0,439.00,1868.0,1876.0
9902,459.0,30.0,28.25,1583.0,439.00,1923.0,1925.0
9972,459.0,30.0,28.25,1573.0,438.00,1912.0,1909.0
10042,459.0,30.0,28.25,1562.0,438.00,1901.0,1900.0
10111,459.0,30.0,28.25,1562.0,438.00,1894.0,1894.0
10177,459.0,30.0,28.25,1565.0,438.00,1897.0,1897.0
10246,459.0,30.0,28.25,1556.0,438.00,1891.0,1891.0
10314,459.0,30.0,28.25,1555.0,438.00,1883.0,1888.0
10383,456.0,34.0,28.25,1541.0,439.00,1875.0,1873.0
10452,456.0,34.0,28.25,1536.0,439.00,1870.0,1868.0
10517,456.0,34.0,28.25,1536.0,439.00,1862.0,1862.0
10583,456.0,34.0,28.25,1531.0,439.00,1855.0,1855.0
10653,456.0,34.0,28.25,1523.0,439.00,1849.0,1847.0
10723,456.0,34.0,28.25,1515.0,439.00,1842.0,1847.0
10792,456.0,34.0,28.25,1510.0,439.00,1838.0,1845.0
10857,456.0,34.0,28.25,1549.0,439.00,1889.0,1885.0
10933,459.0,30.0,28.25,1553.0,439.00,1888.0,1888.0
10992,459.0,34.0,28.25,1548.0,439.00,1877.0,1873.0
11062,456.0,34.0,28.25,1539.0,439.00,1864.0,1866.0
11127,456.0,34.0,28.25,1534.0,439.00,1867.0,1868.0
11197,456.0,34.0,28.25,1535.0,439.00,1867.0,1868.0
11263,456.0,34.0,28.25,1528.0,439.00,1858.0,1864.0
11332,456.0,34.0,28.25,1530.0,439.00,1851.0,1850.0
11402,456.0,34.0,28.25,1526.0,439.00,1852.0,1846.0
11472,456.0,34.0,28.25,1519.0,439.00,1845.0,1852.0
11542,456.0,34.0,28.25,1516.0,439.00,1841.0,1846.0
11611,456.0,34.0,28.25,1506.0,439.00,1829.0,1835.0
11680,456.0,34.0,28.25,1519.0,439.00,1842.0,1845.0
11746,456.0,34.0,28.25,1555.0,439.00,1892.0,1887.0
11815,460.0,34.0,28.25,1548.0,439.00,1873.0,1877.0
11881,456.0,34.0,28.25,1541.0,439.00,1866.0,1864.0
11951,456.0,34.0,28.25,1536.0,439.00,1862.0,1862.0
12023,456.0,34.0,28.25,1531.0,439.00,1862.0,1860.0
12082,456.0,34.0,28.25,1534.0,439.00,1856.0,1856.0
12151,456.0,34.0,28.25,1519.0,439.00,1849.0,1847.0
12222,456.0,34.0,28.25,1522.0,439.00,1841.0,1841.0
12291,456.0,34.0,28.25,1518.0,439.00,1833.0,1833.0
12369,456.0,34.0,28.25,1507.0,439.00,1829.0,1829.0
12432,456.0,34.0,28.25,1502.0,439.00,1821.0,1822.0
12496,456.0,35.0,28.25,1497.0,439.00,1817.0,1817.0
12568,459.0,31.0,28.25,1497.0,439.00,1809.0,1809.0
12635,459.0,31.0,28.25,1506.0,439.00,1826.0,1829.0
12704,456.0,34.0,28.25,1540.0,439.00,1871.0,1877.0
12774,456.0,34.0,28.25,1535.0,439.00,1856.0,1855.0
12840,456.0,34.0,28.25,1524.0,439.00,1851.0,1850.0
12909,456.0,34.0,28.25,1524.0,439.00,1843.0,1843.0
12979,457.0,34.0,28.25,1526.0,439.00,1851.0,1847.0
13048,460.0,34.0,28.25,1516.0,439.00,1839.0,1841.0
13118,460.0,34.0,28.25,1510.0,439.00,1833.0,1831.0
13187,460.0,34.0,28.25,1513.0,439.00,1835.0,1828.0
13258,460.0,34.0,28.25,1501.0,439.00,1822.0,1821.0
13327,460.0,34.0,28.25,1503.0,439.00,1822.0,1816.0
13396,460.0,30.0,28.25,1493.0,439.00,1809.0,1810.0
13462,464.0,30.0,28.25,1486.0,439.00,1804.0,1803.0
13531,464.0,30.0,28.25,1489.0,439.00,1807.0,1801.0
13601,464.0,30.0,28.25,1509.0,439.00,1835.0,1838.0
13671,460.0,34.0,28.25,1516.0,439.00,1839.0,1845.0
13740,460.0,34.0,28.25,1506.0,439.00,1828.0,1826.0
13810,460.0,34.0,28.25,1505.0,439.00,1817.0,1818.0
13875,460.0,35.0,28.25,1506.0,439.00,1826.0,1821.0
13945,456.0,35.0,28.25,1498.0,439.00,1818.0,1824.0
14015,455.0,30.0,28.25,1495.0,440.00,1809.0,1808.0
14084,459.0,30.0,28.25,1489.0,438.00,1800.0,1799.0
14150,466.0,30.0,28.25,1477.0,438.00,1791.0,1789.0
14219,466.0,30.0,28.25,1478.0,435.00,1786.0,1786.0
14289,466.0,30.0,28.25,1476.0,435.00,1782.0,1780.0
14355,467.0,30.0,28.25,1472.0,435.00,1783.0,1775.0
14424,465.0,30.0,28.25,1471.0,436.00,1789.0,1783.0
14490,463.0,30.0,28.25,1506.0,436.00,1825.0,1826.0
14559,457.0,34.0,28.25,1503.0,436.00,1824.0,1824.0
14629,456.0,31.0,28.25,1499.0,436.00,1809.0,1809.0
14699,459.0,30.0,28.25,1493.0,436.00,1805.0,1804.0
14774,458.0,30.0,28.25,1492.0,435.00,1803.0,1803.0
14834,457.0,30.0,28.25,1503.0,436.00,1821.0,1816.0
14903,457.0,30.0,28.25,1498.0,436.00,1816.0,1808.0
15039,457.0,34.0,28.0,1478.0,435.00,1800.0,1792.0
15108,457.0,30.0,28.0,1481.0,435.00,1787.0,1792.0
15174,457.0,30.0,28.0,1477.0,436.00,1792.0,1786.0
15243,457.0,30.0,28.0,1469.0,435.00,1780.0,1779.0
15309,457.0,30.0,28.0,1464.0,435.00,1774.0,1775.0
15379,457.0,30.0,28.0,1495.0,435.00,1809.0,1813.0
15456,453.0,34.0,28.0,1506.0,436.00,1825.0,1824.0
15518,453.0,30.0,28.0,1490.0,436.00,1809.0,1814.0
15583,457.0,30.0,28.0,1484.0,435.00,1800.0,1807.0
15653,457.0,30.0,28.0,1484.0,435.00,1801.0,1801.0
15723,457.0,30.0,28.0,1488.0,435.00,1810.0,1804.0
15788,457.0,30.0,28.0,1485.0,435.00,1793.0,1792.0
15858,457.0,30.0,28.0,1474.0,435.00,1788.0,1795.0
15927,459.0,30.0,28.0,1482.0,436.00,1795.0,1789.0
15993,460.0,30.0,28.0,1473.0,436.00,1786.0,1786.0
16063,461.0,30.0,28.0,1477.0,435.00,1783.0,1788.0
16128,462.0,30.0,28.0,1472.0,435.00,1776.0,1775.0
16236,462.0,30.0,28.0,1468.0,435.00,1771.0,1770.0
16263,462.0,30.0,28.0,1482.0,435.00,1795.0,1795.0
16333,461.0,30.0,28.0,1497.0,435.00,1807.0,1807.0
16402,462.0,30.0,28.0,1488.0,436.00,1795.0,1803.0
16468,462.0,30.0,28.0,1474.0,435.00,1793.0,1787.0
16537,462.0,30.0,28.0,1477.0,436.00,1789.0,1795.0
16611,462.0,30.0,28.0,1485.0,436.00,1799.0,1792.0
16675,462.0,30.0,28.0,1473.0,436.00,1786.0,1783.0
16742,462.0,30.0,28.0,1473.0,436.00,1778.0,1784.0
16808,462.0,30.0,28.0,1469.0,436.00,1771.0,1778.0
16877,462.0,30.0,28.0,1468.0,436.00,1770.0,1776.0
16943,462.0,30.0,28.0,1457.0,436.00,1766.0,1766.0
17008,462.0,30.0,28.0,1457.0,436.00,1757.0,1757.0
17079,462.0,30.0,28.0,1457.0,436.00,1765.0,1766.0
17144,462.0,30.0,28.0,1476.0,436.00,1792.0,1795.0
17213,462.0,30.0,28.0,1499.0,436.00,1818.0,1824.0
17283,462.0,30.0,28.0,1499.0,436.00,1809.0,1809.0
17352,462.0,30.0,28.0,1497.0,436.00,1805.0,1805.0
17418,462.0,30.0,28.0,1489.0,436.00,1805.0,1812.0
17488,462.0,30.0,28.0,1493.0,436.00,1808.0,1813.0
17560,462.0,30.0,28.0,1486.0,436.00,1801.0,1805.0
17628,462.0,30.0,28.0,1481.0,436.00,1793.0,1795.0
17693,462.0,30.0,28.0,1484.0,436.00,1791.0,1789.0
17762,462.0,30.0,28.0,1476.0,436.00,1786.0,1787.0
17828,462.0,30.0,28.0,1477.0,436.00,1783.0,1787.0
17897,462.0,30.0,28.0,1473.0,436.00,1776.0,1783.0
17963,462.0,30.0,28.0,1469.0,436.00,1771.0,1778.0
18032,462.0,30.0,28.0,1476.0,436.00,1787.0,1795.0
18102,462.0,30.0,28.0,1501.0,436.00,1820.0,1818.0
18167,459.0,30.0,28.0,1501.0,436.00,1812.0,1812.0
18237,462.0,30.0,28.0,1497.0,435.00,1814.0,1808.0
18307,462.0,30.0,28.0,1499.0,436.00,1817.0,1810.0
18376,462.0,30.0,28.0,1497.0,436.00,1813.0,1813.0
18446,462.0,30.0,28.0,1492.0,436.00,1808.0,1808.0
18511,462.0,30.0,28.0,1485.0,436.00,1799.0,1797.0
18581,462.0,30.0,28.0,1486.0,436.00,1795.0,1793.0
18651,462.0,30.0,28.0,1476.0,435.00,1788.0,1795.0
18717,462.0,30.0,28.0,1478.0,435.00,1784.0,1784.0
18786,462.0,30.0,28.0,1471.0,435.00,1788.0,1782.0
18851,462.0,30.0,28.0,1473.0,435.00,1789.0,1791.0
18921,462.0,30.0,28.0,1502.0,435.00,1824.0,1828.0
18991,459.0,34.0,28.0,1506.0,436.00,1817.0,1816.0
19060,462.0,30.0,28.0,1499.0,435.00,1813.0,1808.0
19126,462.0,30.0,28.0,1495.0,435.00,1810.0,1804.0
19196,462.0,30.0,28.0,1507.0,435.00,1824.0,1822.0
19265,458.0,34.0,28.0,1509.0,435.00,1820.0,1818.0
19335,458.0,30.0,28.0,1502.0,435.00,1817.0,1812.0
19404,462.0,30.0,28.0,1499.0,435.00,1816.0,1809.0
19470,462.0,30.0,28.0,1493.0,435.00,1808.0,1799.0
19540,462.0,30.0,28.0,1486.0,435.00,1793.0,1793.0
19609,462.0,30.0,28.0,1476.0,435.00,1786.0,1786.0
19675,462.0,30.0,28.0,1477.0,435.00,1782.0,1788.0
19744,462.0,30.0,28.0,1499.0,436.00,1821.0,1817.0
19814,458.0,34.0,28.0,1519.0,436.00,1834.0,1833.0
19884,459.0,34.0,28.0,1507.0,436.00,1825.0,1833.0
19953,459.0,34.0,28.0,1510.0,435.00,1829.0,1822.0
20023,459.0,34.0,28.0,1505.0,436.00,1825.0,1824.0
20098,459.0,34.0,28.0,1509.0,436.00,1828.0,1828.0
20158,459.0,34.0,28.0,1511.0,436.00,1822.0,1824.0
20228,459.0,35.0,28.0,1499.0,436.00,1816.0,1814.0
20300,462.0,30.0,28.0,1494.0,436.00,1810.0,1817.0
20367,462.0,30.0,28.0,1492.0,435.00,1805.0,1813.0
20432,462.0,30.0,28.0,1486.0,435.00,1800.0,1800.0
20502,462.0,30.0,28.0,1489.0,435.00,1803.0,1796.0
20576,462.0,30.0,28.0,1488.0,435.00,1796.0,1797.0
20641,459.0,30.0,28.0,1516.0,435.00,1830.0,1831.0
20711,459.0,34.0,28.0,1507.0,436.00,1825.0,1825.0
20777,459.0,35.0,28.0,1505.0,436.00,1818.0,1812.0
20846,462.0,30.0,28.0,1502.0,436.00,1818.0,1812.0
20916,458.0,31.0,28.0,1498.0,437.00,1816.0,1822.0
20985,459.0,31.0,28.0,1495.0,436.00,1810.0,1809.0
21051,462.0,30.0,28.0,1488.0,437.00,1801.0,1808.0
21121,462.0,30.0,28.0,1484.0,437.00,1795.0,1795.0
21190,462.0,30.0,28.0,1485.0,437.00,1788.0,1788.0
21256,462.0,30.0,28.0,1473.0,437.00,1782.0,1782.0
21325,462.0,30.0,28.0,1469.0,436.00,1776.0,1776.0
21391,462.0,30.0,28.0,1464.0,436.00,1774.0,1772.0
21461,462.0,30.0,28.0,1495.0,434.00,1805.0,1809.0
21531,459.0,35.0,28.0,1510.0,433.00,1826.0,1821.0
21600,458.0,34.0,28.0,1506.0,434.00,1824.0,1830.0
21669,459.0,34.0,28.0,1510.0,433.00,1820.0,1818.0
21735,458.0,35.0,28.0,1503.0,433.00,1820.0,1820.0
21804,458.0,34.0,28.0,1509.0,433.00,1820.0,1818.0
21940,456.0,30.0,27.75,1502.0,433.00,1808.0,1809.0
22009,457.0,30.0,27.75,1497.0,433.00,1804.0,1803.0
22079,457.0,30.0,27.75,1488.0,433.00,1799.0,1804.0
22144,457.0,30.0,27.75,1482.0,433.00,1793.0,1792.0
22214,456.0,30.0,27.75,1484.0,433.00,1788.0,1787.0
22284,456.0,30.0,27.75,1481.0,433.00,1793.0,1788.0
22349,456.0,30.0,27.75,1515.0,433.00,1835.0,1830.0
22419,453.0,34.0,27.75,1516.0,433.00,1828.0,1825.0
22488,453.0,34.0,27.75,1505.0,433.00,1821.0,1821.0
22558,453.0,35.0,27.75,1506.0,433.00,1816.0,1817.0
22628,453.0,35.0,27.75,1510.0,433.00,1826.0,1821.0
22698,453.0,34.0,27.75,1502.0,433.00,1818.0,1822.0
22763,453.0,31.0,27.75,1502.0,433.00,1810.0,1812.0
22833,456.0,30.0,27.75,1498.0,433.00,1805.0,1805.0
22902,456.0,30.0,27.75,1493.0,433.00,1800.0,1799.0
22972,456.0,30.0,27.75,1484.0,433.00,1793.0,1792.0
23037,456.0,30.0,27.75,1484.0,433.00,1787.0,1786.0
23110,456.0,30.0,27.75,1472.0,433.00,1787.0,1782.0
23173,456.0,30.0,27.75,1467.0,434.00,1775.0,1776.0
23242,456.0,30.0,27.75,1494.0,434.00,1804.0,1807.0
23312,453.0,34.0,27.75,1514.0,435.00,1830.0,1825.0
23382,453.0,35.0,27.75,1499.0,434.00,1814.0,1820.0
23447,456.0,30.0,27.75,1493.0,432.00,1807.0,1813.0
23517,456.0,30.0,27.75,1495.0,430.00,1810.0,1810.0
23586,456.0,30.0,27.75,1502.0,430.00,1810.0,1809.0
23656,456.0,30.0,27.75,1498.0,430.00,1804.0,1801.0
23721,456.0,30.0,27.75,1494.0,430.00,1799.0,1805.0
23791,456.0,30.0,27.75,1484.0,430.00,1793.0,1795.0
23866,456.0,30.0,27.75,1486.0,430.00,1788.0,1788.0
23926,456.0,30.0,27.75,1477.0,431.00,1784.0,1786.0
23998,456.0,30.0,27.75,1474.0,432.00,1783.0,1787.0
24064,456.0,30.0,27.75,1481.0,432.00,1788.0,1789.0
24132,456.0,30.0,27.75,1515.0,432.00,1828.0,1828.0
24201,453.0,34.0,27.75,1506.0,432.00,1822.0,1828.0
24271,453.0,35.0,27.75,1509.0,433.00,1816.0,1816.0
24340,456.0,30.0,27.75,1503.0,433.00,1817.0,1810.0
24406,456.0,30.0,27.75,1501.0,433.00,1814.0,1814.0
24475,453.0,30.0,27.75,1498.0,433.00,1810.0,1817.0
24545,456.0,30.0,27.75,1492.0,433.00,1803.0,1808.0
24614,456.0,30.0,27.75,1486.0,433.00,1799.0,1797.0
24680,456.0,30.0,27.75,1488.0,433.00,1792.0,1793.0
24749,456.0,30.0,27.75,1477.0,433.00,1787.0,1787.0
24819,456.0,30.0,27.75,1480.0,433.00,1782.0,1787.0
24885,456.0,30.0,27.75,1476.0,433.00,1778.0,1775.0
24954,456.0,30.0,27.75,1481.0,433.00,1788.0,1789.0
25020,456.0,30.0,27.75,1514.0,433.00,1826.0,1824.0
25089,453.0,34.0,27.75,1501.0,433.00,1816.0,1821.0
25159,456.0,30.0,27.75,1497.0,433.00,1809.0,1812.0
25228,456.0,30.0,27.75,1502.0,433.00,1808.0,1809.0
25298,456.0,30.0,27.75,1505.0,433.00,1814.0,1813.0
25364,456.0,30.0,27.75,1501.0,433.00,1814.0,1808.0
25433,456.0,30.0,27.75,1495.0,433.00,1807.0,1800.0
25503,456.0,30.0,27.75,1490.0,433.00,1795.0,1795.0
25571,456.0,30.0,27.75,1478.0,433.00,1788.0,1788.0
25638,456.0,30.0,27.75,1482.0,433.00,1786.0,1789.0
25708,456.0,30.0,27.75,1477.0,433.00,1778.0,1778.0
25773,456.0,30.0,27.75,1471.0,433.00,1771.0,1771.0
25842,456.0,30.0,27.75,1469.0,433.00,1772.0,1779.0
25908,456.0,30.0,27.75,1498.0,433.00,1813.0,1808.0
25979,456.0,30.0,27.75,1498.0,433.00,1809.0,1803.0
26048,456.0,30.0,27.75,1499.0,433.00,1813.0,1807.0
26113,456.0,30.0,27.75,1495.0,433.00,1807.0,1801.0
26183,456.0,30.0,27.75,1499.0,433.00,1804.0,1805.0
26252,456.0,30.0,27.75,1503.0,433.00,1807.0,1808.0
26322,456.0,30.0,27.75,1499.0,433.00,1805.0,1803.0
26388,456.0,30.0,27.75,1494.0,433.00,1797.0,1797.0
26457,456.0,30.0,27.75,1485.0,433.00,1792.0,1797.0
26527,456.0,30.0,27.75,1485.0,434.00,1786.0,1787.0
26592,456.0,30.0,27.75,1477.0,434.00,1783.0,1783.0
26662,456.0,30.0,27.75,1474.0,434.00,1799.0,1804.0
26728,456.0,30.0,27.75,1515.0,434.00,1835.0,1837.0
26801,452.0,34.0,27.75,1537.0,434.00,1855.0,1849.0
26871,452.0,34.0,27.75,1532.0,433.00,1841.0,1839.0
26941,455.0,34.0,27.75,1520.0,434.00,1835.0,1856.0
27010,460.0,34.0,27.75,1527.0,434.00,1834.0,1835.0
27080,465.0,34.0,27.75,1528.0,434.00,1835.0,1835.0
27149,467.0,34.0,27.75,1523.0,434.00,1835.0,1829.0
27215,468.0,34.0,27.75,1518.0,434.00,1824.0,1824.0
27285,468.0,34.0,27.75,1509.0,434.00,1820.0,1818.0
27354,466.0,30.0,27.75,1503.0,434.00,1813.0,1813.0
27424,461.0,30.0,27.75,1507.0,434.00,1810.0,1810.0
27494,464.0,30.0,27.75,1502.0,434.00,1804.0,1805.0
27560,463.0,30.0,27.75,1509.0,434.00,1817.0,1820.0
27633,460.0,34.0,27.75,1537.0,434.00,1850.0,1850.0
27703,460.0,34.0,27.75,1531.0,434.00,1847.0,1852.0
27772,460.0,34.0,27.75,1528.0,434.00,1843.0,1843.0
27843,460.0,34.0,27.75,1534.0,434.00,1845.0,1843.0
27911,461.0,34.0,27.75,1539.0,434.00,1856.0,1851.0
27981,460.0,34.0,27.75,1532.0,434.00,1849.0,1847.0
28052,460.0,34.0,27.75,1531.0,434.00,1841.0,1841.0
28120,460.0,34.0,27.75,1527.0,434.00,1837.0,1835.0
28190,460.0,34.0,27.75,1515.0,434.00,1829.0,1829.0
28260,460.0,34.0,27.75,1511.0,434.00,1824.0,1824.0
28330,459.0,34.0,27.75,1513.0,434.00,1818.0,1817.0
28395,463.0,30.0,27.75,1494.0,434.00,1799.0,1800.0
28464,462.0,30.0,27.75,1520.0,434.00,1838.0,1833.0
28534,458.0,34.0,27.75,1523.0,434.00,1831.0,1830.0
28606,457.0,34.0,27.75,1507.0,436.00,1821.0,1825.0
28673,457.0,30.0,27.75,1509.0,433.00,1814.0,1814.0
28743,456.0,30.0,27.75,1511.0,434.00,1822.0,1817.0
28879,456.0,30.0,28.0,1502.0,434.00,1805.0,1805.0
28944,459.0,30.0,28.0,1495.0,434.00,1799.0,1799.0
29013,459.0,30.0,28.0,1484.0,435.00,1792.0,1797.0
29083,459.0,30.0,28.0,1495.0,435.00,1803.0,1797.0
29148,459.0,30.0,28.0,1492.0,435.00,1793.0,1795.0
29218,459.0,30.0,28.0,1498.0,435.00,1814.0,1824.0
29287,455.0,34.0,28.0,1530.0,435.00,1849.0,1854.0
29357,455.0,34.0,28.0,1535.0,435.00,1846.0,1847.0
29427,455.0,34.0,28.0,1531.0,435.00,1846.0,1839.0
29496,455.0,34.0,28.0,1527.0,435.00,1845.0,1839.0
29566,455.0,34.0,28.0,1531.0,435.00,1849.0,1843.0
29636,455.0,34.0,28.0,1528.0,435.00,1837.0,1835.0
29705,455.0,34.0,28.0,1519.0,435.00,1833.0,1828.0
29775,455.0,34.0,28.0,1509.0,435.00,1821.0,1821.0
29844,455.0,35.0,28.0,1510.0,434.00,1822.0,1814.0
29915,459.0,30.0,28.0,1498.0,434.00,1816.0,1809.0
29980,459.0,30.0,28.0,1495.0,434.00,1807.0,1807.0
30050,455.0,34.0,28.0,1523.0,434.00,1845.0,1847.0
30119,455.0,34.0,28.0,1539.0,433.00,1852.0,1854.0
30189,455.0,34.0,28.0,1531.0,432.00,1849.0,1849.0
30258,455.0,34.0,28.0,1537.0,432.00,1850.0,1851.0
30324,455.0,34.0,28.0,1544.0,428.00,1868.0,1870.0
30393,455.0,34.0,28.0,1557.0,429.00,1883.0,1883.0
30459,459.0,33.0,28.0,1561.0,430.00,1888.0,1879.0
30528,455.0,34.0,28.0,1557.0,426.00,1876.0,1881.0
30598,455.0,34.0,28.0,1552.0,428.00,1876.0,1881.0
30664,455.0,34.0,28.0,1557.0,422.00,1879.0,1880.0
30733,458.0,29.0,28.0,1569.0,418.00,1887.0,1888.0
30799,459.0,30.0,28.0,1574.0,420.00,1894.0,1896.0
30868,459.0,30.0,28.0,1591.0,421.00,1915.0,1917.0
30938,459.0,30.0,28.0,1619.0,426.00,1959.0,1959.0
31008,456.0,34.0,28.0,1633.0,425.00,1968.0,1968.0
31077,456.0,34.0,28.0,1607.0,422.00,1940.0,1938.0
31147,460.0,30.0,28.0,1536.0,416.00,1842.0,1829.0
31212,461.0,30.0,28.0,1426.0,412.00,1690.0,1687.0
31282,460.0,35.0,28.0,1279.0,427.00,1523.0,1518.0
31348,461.0,30.0,28.0,1253.0,424.00,1495.0,1495.0
31416,464.0,30.0,28.0,1245.0,430.00,1493.0,1488.0
31479,465.0,30.0,28.0,1237.0,431.00,1484.0,1477.0
31544,465.0,30.0,28.0,1230.0,427.00,1469.0,1474.0
31610,465.0,30.0,28.0,1225.0,427.00,1471.0,1465.0
31671,464.0,29.0,28.0,1222.0,427.00,1477.0,1478.0
31741,461.0,34.0,28.0,1299.0,428.00,1568.0,1569.0
31808,464.0,30.0,28.0,1308.0,428.00,1574.0,1574.0
31872,464.0,30.0,28.0,1300.0,431.00,1555.0,1561.0
31937,464.0,30.0,28.0,1293.0,430.00,1549.0,1555.0
32003,464.0,29.0,28.0,1295.0,430.00,1553.0,1552.0
32068,464.0,30.0,28.0,1296.0,431.00,1551.0,1549.0
32135,464.0,34.0,28.0,1283.0,430.00,1544.0,1543.0
32199,464.0,34.0,28.0,1283.0,427.00,1541.0,1540.0
32265,461.0,34.0,28.0,1278.0,428.00,1527.0,1534.0
32335,461.0,34.0,28.0,1266.0,427.00,1523.0,1523.0
32400,461.0,34.0,28.0,1268.0,426.00,1518.0,1516.0
32466,461.0,34.0,28.0,1264.0,430.00,1519.0,1519.0
32535,461.0,34.0,28.0,1271.0,426.00,1530.0,1531.0
32601,464.0,34.0,28.0,1309.0,430.00,1578.0,1579.0
32666,464.0,30.0,28.0,1304.0,428.00,1569.0,1568.0
32732,464.0,30.0,28.0,1299.0,427.00,1562.0,1562.0
32798,464.0,30.0,28.0,1293.0,423.00,1556.0,1556.0
32863,464.0,29.0,28.0,1295.0,420.00,1557.0,1557.0
32929,464.0,29.0,28.0,1292.0,420.00,1548.0,1553.0
32994,464.0,34.0,28.0,1279.0,419.00,1539.0,1539.0
33060,460.0,34.0,28.0,1276.0,416.00,1531.0,1535.0
33125,461.0,34.0,28.0,1266.0,412.00,1524.0,1523.0
33191,460.0,34.0,28.0,1268.0,409.00,1516.0,1518.0
33260,461.0,34.0,28.0,1263.0,412.00,1518.0,1518.0
33326,461.0,34.0,28.0,1257.0,411.00,1510.0,1509.0
33391,461.0,30.0,28.0,1253.0,413.00,1497.0,1497.0
33457,461.0,34.0,28.0,1267.0,417.00,1528.0,1531.0
33523,464.0,33.0,28.0,1296.0,417.00,1557.0,1557.0
33588,464.0,34.0,28.0,1287.0,415.00,1545.0,1545.0
33654,460.0,34.0,28.0,1274.0,418.00,1532.0,1531.0
33719,461.0,34.0,28.0,1282.0,417.00,1536.0,1544.0
33785,464.0,30.0,28.0,1305.0,416.00,1564.0,1569.0
33850,464.0,30.0,28.0,1297.0,414.00,1558.0,1558.0
33918,464.0,34.0,28.0,1288.0,414.00,1548.0,1547.0
33981,464.0,34.0,28.0,1279.0,415.00,1541.0,1540.0
34049,464.0,34.0,28.0,1285.0,415.00,1545.0,1545.0
34108,463.0,34.0,28.0,1285.0,416.00,1539.0,1539.0
34173,463.0,34.0,28.0,1282.0,417.00,1540.0,1541.0
34239,460.0,34.0,28.0,1271.0,416.00,1534.0,1534.0
34305,460.0,34.0,28.0,1271.0,416.00,1519.0,1520.0
34370,460.0,34.0,28.0,1300.0,416.00,1570.0,1572.0
34440,460.0,30.0,28.0,1333.0,416.00,1597.0,1597.0
34505,460.0,30.0,28.0,1327.0,416.00,1591.0,1598.0
34571,460.0,30.0,28.0,1325.0,416.00,1593.0,1587.0
34640,460.0,30.0,28.0,1325.0,416.00,1589.0,1589.0
34706,460.0,30.0,28.0,1329.0,416.00,1591.0,1598.0
34772,460.0,30.0,28.0,1325.0,416.00,1591.0,1593.0
34841,463.0,30.0,28.0,1320.0,416.00,1586.0,1586.0
34907,463.0,30.0,28.0,1314.0,416.00,1579.0,1581.0
34972,463.0,30.0,28.0,1309.0,416.00,1566.0,1566.0
35038,463.0,30.0,28.0,1305.0,416.00,1569.0,1569.0
35103,463.0,30.0,28.0,1295.0,415.00,1558.0,1557.0
35169,463.0,30.0,28.0,1299.0,414.00,1555.0,1553.0
35234,463.0,30.0,28.0,1320.0,414.00,1594.0,1595.0
35304,460.0,34.0,28.0,1354.0,414.00,1629.0,1624.0
35370,460.0,34.0,28.0,1343.0,413.00,1611.0,1608.0
35439,460.0,34.0,28.0,1330.0,414.00,1598.0,1598.0
35505,460.0,30.0,28.0,1325.0,411.00,1589.0,1589.0
35640,460.0,34.0,28.25,1312.0,412.00,1578.0,1578.0
35705,463.0,30.0,28.25,1313.0,411.00,1578.0,1573.0
35771,463.0,30.0,28.25,1306.0,411.00,1564.0,1569.0
35837,463.0,30.0,28.25,1303.0,406.00,1565.0,1566.0
35902,463.0,30.0,28.25,1297.0,409.00,1561.0,1561.0
35968,463.0,30.0,28.25,1300.0,409.00,1557.0,1557.0
36037,464.0,30.0,28.25,1326.0,411.00,1595.0,1597.0
36103,460.0,34.0,28.25,1351.0,411.00,1620.0,1620.0
36172,460.0,34.0,28.25,1339.0,411.00,1612.0,1618.0
36238,460.0,34.0,28.25,1331.0,411.00,1602.0,1602.0
36307,460.0,34.0,28.25,1338.0,411.00,1603.0,1604.0
36373,460.0,34.0,28.25,1341.0,411.00,1611.0,1606.0
36439,460.0,34.0,28.25,1338.0,411.00,1607.0,1606.0
36508,460.0,31.0,28.25,1324.0,412.00,1593.0,1591.0
36574,460.0,30.0,28.25,1325.0,413.00,1591.0,1593.0
36639,463.0,30.0,28.25,1318.0,413.00,1583.0,1583.0
36709,463.0,30.0,28.25,1313.0,413.00,1570.0,1572.0
36777,463.0,30.0,28.25,1305.0,413.00,1569.0,1568.0
36840,463.0,30.0,28.25,1304.0,413.00,1570.0,1574.0
36905,460.0,31.0,28.25,1347.0,413.00,1624.0,1620.0
36975,460.0,34.0,28.25,1350.0,412.00,1616.0,1615.0
37041,460.0,34.0,28.25,1337.0,413.00,1608.0,1610.0
37110,460.0,34.0,28.25,1335.0,416.00,1608.0,1610.0
37176,460.0,34.0,28.25,1338.0,416.00,1610.0,1610.0
37245,460.0,34.0,28.25,1334.0,416.00,1607.0,1606.0
37311,460.0,34.0,28.25,1331.0,416.00,1602.0,1595.0
37381,460.0,30.0,28.25,1318.0,416.00,1586.0,1587.0
37446,463.0,30.0,28.25,1316.0,417.00,1582.0,1581.0
37512,463.0,30.0,28.25,1309.0,416.00,1576.0,1576.0
37577,463.0,30.0,28.25,1313.0,416.00,1573.0,1573.0
37643,463.0,30.0,28.25,1309.0,417.00,1573.0,1572.0
37708,463.0,30.0,28.25,1303.0,418.00,1572.0,1572.0
37778,460.0,30.0,28.25,1348.0,418.00,1627.0,1628.0
37844,460.0,34.0,28.25,1350.0,417.00,1616.0,1616.0
37913,460.0,34.0,28.25,1339.0,417.00,1603.0,1602.0
37979,460.0,34.0,28.25,1333.0,417.00,1604.0,1604.0
38048,460.0,34.0,28.25,1330.0,418.00,1600.0,1607.0
38114,460.0,35.0,28.25,1330.0,417.00,1594.0,1594.0
38181,460.0,30.0,28.25,1317.0,417.00,1585.0,1583.0
38249,463.0,30.0,28.25,1309.0,418.00,1576.0,1576.0
38314,463.0,30.0,28.25,1310.0,418.00,1574.0,1569.0
38380,463.0,30.0,28.25,1308.0,418.00,1565.0,1565.0
38445,463.0,30.0,28.25,1304.0,418.00,1565.0,1565.0
38511,463.0,30.0,28.25,1301.0,418.00,1568.0,1568.0
38581,460.0,30.0,28.25,1341.0,418.00,1616.0,1624.0
38646,460.0,34.0,28.25,1350.0,418.00,1623.0,1615.0
38716,460.0,34.0,28.25,1341.0,417.00,1610.0,1603.0
38781,460.0,34.0,28.25,1333.0,417.00,1595.0,1602.0
38847,460.0,31.0,28.25,1334.0,418.00,1597.0,1597.0
38916,465.0,31.0,28.25,1330.0,418.00,1591.0,1597.0
38982,466.0,30.0,28.25,1325.0,418.00,1590.0,1590.0
39048,470.0,30.0,28.25,1318.0,418.00,1583.0,1585.0
39116,470.0,30.0,28.25,1312.0,418.00,1569.0,1576.0
39183,470.0,30.0,28.25,1309.0,418.00,1564.0,1565.0
39248,471.0,30.0,28.25,1304.0,418.00,1558.0,1558.0
39314,471.0,30.0,28.25,1300.0,418.00,1555.0,1561.0
39379,471.0,30.0,28.25,1300.0,419.00,1561.0,1564.0
39447,471.0,30.0,28.25,1342.0,419.00,1612.0,1620.0
39515,467.0,34.0,28.25,1360.0,418.00,1629.0,1628.0
39580,468.0,34.0,28.25,1350.0,419.00,1621.0,1621.0
39650,466.0,34.0,28.25,1338.0,419.00,1604.0,1607.0
39715,465.0,34.0,28.25,1331.0,418.00,1602.0,1600.0
39785,465.0,34.0,28.25,1335.0,419.00,1608.0,1603.0
39850,465.0,34.0,28.25,1334.0,421.00,1602.0,1602.0
39916,465.0,30.0,28.25,1327.0,422.00,1594.0,1586.0
39986,473.0,30.0,28.25,1321.0,423.00,1581.0,1579.0
40051,475.0,30.0,28.25,1317.0,422.00,1582.0,1576.0
40117,475.0,30.0,28.25,1313.0,423.00,1576.0,1576.0
40182,475.0,30.0,28.25,1304.0,423.00,1566.0,1565.0
40248,475.0,30.0,28.25,1303.0,424.00,1557.0,1562.0
40313,473.0,30.0,28.25,1308.0,424.00,1576.0,1578.0
40383,469.0,30.0,28.25,1341.0,425.00,1604.0,1607.0
40448,469.0,34.0,28.25,1334.0,425.00,1602.0,1595.0
40514,468.0,30.0,28.25,1325.0,426.00,1591.0,1591.0
40583,463.0,30.0,28.25,1326.0,426.00,1595.0,1595.0
40649,459.0,30.0,28.25,1327.0,427.00,1595.0,1590.0
40715,459.0,30.0,28.25,1318.0,427.00,1583.0,1585.0
40784,462.0,30.0,28.25,1313.0,427.00,1577.0,1577.0
40850,461.0,30.0,28.25,1312.0,426.00,1576.0,1569.0
40917,461.0,30.0,28.25,1306.0,425.00,1562.0,1564.0
40981,461.0,30.0,28.25,1303.0,425.00,1564.0,1564.0
41046,461.0,30.0,28.25,1299.0,425.00,1558.0,1558.0
41112,461.0,29.0,28.25,1292.0,425.00,1552.0,1552.0
41181,461.0,32.0,28.25,1304.0,425.00,1568.0,1569.0
41243,461.0,30.0,28.25,1335.0,425.00,1606.0,1606.0
41313,457.0,34.0,28.25,1327.0,426.00,1595.0,1594.0
41378,457.0,30.0,28.25,1327.0,426.00,1595.0,1594.0
41444,457.0,30.0,28.25,1325.0,426.00,1593.0,1586.0
41513,457.0,30.0,28.25,1324.0,427.00,1593.0,1593.0
41579,457.0,30.0,28.25,1327.0,428.00,1594.0,1593.0
41644,461.0,30.0,28.25,1320.0,429.00,1583.0,1585.0
41710,461.0,30.0,28.25,1314.0,430.00,1573.0,1573.0
41776,461.0,30.0,28.25,1309.0,430.00,1565.0,1565.0
41845,461.0,30.0,28.25,1306.0,430.00,1561.0,1562.0
41910,461.0,30.0,28.25,1304.0,431.00,1564.0,1565.0
41976,461.0,30.0,28.25,1300.0,431.00,1560.0,1560.0
42042,461.0,30.0,28.25,1305.0,431.00,1569.0,1565.0
42109,461.0,30.0,28.25,1342.0,431.00,1618.0,1620.0
42173,458.0,34.0,28.25,1359.0,432.00,1625.0,1625.0
42242,458.0,34.0,28.25,1352.0,432.00,1623.0,1623.0
42373,458.0,30.0,28.25,1348.0,432.00,1620.0,1615.0
42443,458.0,34.0,28.25,1348.0,432.00,1618.0,1612.0
42509,458.0,34.0,28.25,1341.0,432.00,1608.0,1602.0
42578,458.0,34.0,28.25,1335.0,432.00,1603.0,1602.0
42644,458.0,30.0,28.25,1329.0,432.00,1590.0,1590.0
42709,457.0,30.0,28.25,1318.0,433.00,1583.0,1582.0
42775,461.0,30.0,28.25,1313.0,433.00,1577.0,1576.0
42844,461.0,30.0,28.25,1313.0,433.00,1574.0,1568.0
42910,461.0,30.0,28.25,1305.0,433.00,1558.0,1560.0
42975,461.0,30.0,28.25,1309.0,433.00,1574.0,1577.0
43041,457.0,30.0,28.25,1343.0,433.00,1615.0,1610.0
43110,458.0,34.0,28.25,1342.0,434.00,1611.0,1603.0
43176,458.0,34.0,28.25,1335.0,434.00,1602.0,1602.0
43242,458.0,30.0,28.25,1330.0,434.00,1591.0,1591.0
43311,457.0,31.0,28.25,1333.0,434.00,1597.0,1602.0
43377,457.0,31.0,28.25,1331.0,435.00,1593.0,1591.0
43442,457.0,30.0,28.25,1318.0,435.00,1583.0,1585.0
43512,461.0,30.0,28.25,1313.0,435.00,1577.0,1576.0
43577,461.0,30.0,28.25,1313.0,435.00,1569.0,1568.0
43643,461.0,30.0,28.25,1308.0,435.00,1562.0,1569.0
43708,461.0,30.0,28.25,1304.0,435.00,1564.0,1565.0
43774,461.0,30.0,28.25,1300.0,435.00,1558.0,1558.0
43840,461.0,30.0,28.25,1301.0,436.00,1565.0,1566.0
43905,461.0,30.0,28.25,1339.0,435.00,1610.0,1606.0
43975,457.0,34.0,28.25,1345.0,435.00,1614.0,1607.0
44040,458.0,34.0,28.25,1338.0,435.00,1604.0,1604.0
44110,458.0,31.0,28.25,1327.0,436.00,1593.0,1594.0
44176,458.0,31.0,28.25,1334.0,436.00,1602.0,1602.0
44241,457.0,35.0,28.25,1327.0,436.00,1594.0,1593.0
44311,458.0,30.0,28.25,1327.0,436.00,1587.0,1594.0
44376,461.0,30.0,28.25,1322.0,436.00,1586.0,1586.0
44442,461.0,30.0,28.25,1318.0,436.00,1581.0,1581.0
44508,461.0,30.0,28.25,1308.0,436.00,1570.0,1570.0
44577,461.0,30.0,28.25,1312.0,436.00,1572.0,1573.0
44642,461.0,30.0,28.25,1297.0,436.00,1557.0,1557.0
44708,461.0,30.0,28.25,1288.0,436.00,1547.0,1547.0
44773,461.0,30.0,28.25,1317.0,436.00,1579.0,1587.0
44841,457.0,34.0,28.25,1346.0,436.00,1608.0,1608.0
44908,457.0,34.0,28.25,1339.0,436.00,1602.0,1602.0
44974,457.0,34.0,28.25,1335.0,436.00,1603.0,1603.0
45040,457.0,31.0,28.25,1330.0,436.00,1595.0,1595.0
45109,457.0,35.0,28.25,1337.0,436.00,1604.0,1604.0
45175,457.0,35.0,28.25,1327.0,436.00,1593.0,1593.0
45240,457.0,30.0,28.25,1326.0,436.00,1590.0,1591.0
45310,461.0,30.0,28.25,1318.0,436.00,1582.0,1581.0
45375,460.0,30.0,28.25,1304.0,436.00,1566.0,1566.0
45441,461.0,30.0,28.25,1303.0,436.00,1565.0,1564.0
45507,461.0,30.0,28.25,1299.0,437.00,1558.0,1557.0
45572,460.0,34.0,28.25,1291.0,437.00,1543.0,1548.0
45640,461.0,34.0,28.25,1284.0,437.00,1547.0,1548.0
45703,461.0,30.0,28.25,1324.0,436.00,1593.0,1594.0
45769,457.0,30.0,28.25,1331.0,436.00,1591.0,1593.0
45838,457.0,30.0,28.25,1321.0,436.00,1589.0,1587.0
45904,457.0,30.0,28.25,1324.0,436.00,1590.0,1591.0
45969,457.0,30.0,28.25,1329.0,436.00,1597.0,1597.0
46039,457.0,30.0,28.25,1326.0,436.00,1586.0,1586.0
46105,460.0,30.0,28.25,1313.0,436.00,1577.0,1577.0
46170,460.0,30.0,28.25,1312.0,436.00,1574.0,1574.0
46236,460.0,30.0,28.25,1299.0,436.00,1558.0,1557.0
46301,460.0,30.0,28.25,1297.0,436.00,1552.0,1551.0
46367,460.0,29.0,28.25,1287.0,436.00,1545.0,1544.0
46432,460.0,34.0,28.25,1287.0,436.00,1545.0,1545.0
46498,461.0,34.0,28.25,1295.0,436.00,1553.0,1556.0
46563,460.0,30.0,28.25,1331.0,436.00,1603.0,1603.0
46633,457.0,34.0,28.25,1338.0,436.00,1608.0,1608.0
46698,457.0,34.0,28.25,1333.0,436.00,1600.0,1600.0
46764,457.0,34.0,28.25,1337.0,435.00,1607.0,1599.0
46834,457.0,34.0,28.25,1342.0,435.00,1612.0,1612.0
46899,457.0,34.0,28.25,1342.0,436.00,1604.0,1610.0
46969,457.0,34.0,28.25,1326.0,435.00,1595.0,1593.0
47034,457.0,30.0,28.25,1327.0,435.00,1586.0,1591.0
47100,461.0,30.0,28.25,1320.0,435.00,1585.0,1583.0
47169,461.0,30.0,28.25,1314.0,435.00,1572.0,1570.0
47235,461.0,30.0,28.25,1309.0,435.00,1572.0,1564.0
47300,461.0,30.0,28.25,1297.0,435.00,1557.0,1558.0
47366,461.0,30.0,28.25,1322.0,435.00,1594.0,1595.0
47432,457.0,34.0,28.25,1358.0,435.00,1632.0,1625.0
47504,457.0,34.0,28.25,1348.0,435.00,1625.0,1625.0
47571,457.0,34.0,28.25,1352.0,435.00,1624.0,1618.0
47636,457.0,34.0,28.25,1351.0,435.00,1618.0,1619.0
47706,458.0,34.0,28.25,1351.0,435.00,1624.0,1632.0
47772,457.0,34.0,28.25,1354.0,434.00,1619.0,1619.0
47841,457.0,34.0,28.25,1341.0,434.00,1611.0,1611.0
47907,457.0,34.0,28.25,1334.0,434.00,1602.0,1600.0
47976,457.0,34.0,28.25,1333.0,434.00,1599.0,1600.0
48052,457.0,30.0,28.25,1326.0,434.00,1585.0,1583.0
48108,461.0,30.0,28.25,1317.0,434.00,1576.0,1574.0
48177,460.0,30.0,28.25,1310.0,442.00,1586.0,1586.0
48243,457.0,30.0,28.25,1343.0,434.00,1616.0,1619.0
48308,457.0,34.0,28.25,1362.0,434.00,1636.0,1657.0
48374,457.0,34.0,28.25,1359.0,434.00,1631.0,1637.0
48439,457.0,34.0,28.25,1351.0,434.00,1623.0,1629.0
48505,457.0,34.0,28.25,1356.0,434.00,1629.0,1637.0
48570,457.0,34.0,28.25,1360.0,434.00,1635.0,1639.0
48636,457.0,34.0,28.25,1362.0,434.00,1636.0,1633.0
48705,457.0,34.0,28.25,1350.0,434.00,1619.0,1620.0
48771,457.0,34.0,28.25,1342.0,434.00,1611.0,1616.0
48840,457.0,34.0,28.25,1337.0,434.00,1603.0,1608.0
48906,457.0,34.0,28.25,1337.0,434.00,1595.0,1595.0
48975,457.0,30.0,28.25,1342.0,434.00,1614.0,1615.0
49107,457.0,33.0,28.25,1385.0,434.00,1665.0,1671.0
49172,460.0,30.0,28.25,1387.0,434.00,1665.0,1658.0
49242,460.0,30.0,28.25,1377.0,435.00,1661.0,1662.0
49309,460.0,30.0,28.25,1404.0,434.00,1665.0,1666.0
49373,460.0,30.0,28.25,1381.0,435.00,1665.0,1658.0
49438,460.0,30.0,28.25,1375.0,435.00,1652.0,1657.0
49504,460.0,30.0,28.25,1376.0,435.00,1646.0,1645.0
49574,460.0,34.0,28.25,1371.0,435.00,1646.0,1640.0
49639,460.0,34.0,28.25,1368.0,435.00,1637.0,1636.0
49705,457.0,34.0,28.25,1359.0,435.00,1632.0,1637.0
49770,457.0,34.0,28.25,1355.0,435.00,1628.0,1635.0
49836,460.0,34.0,28.25,1392.0,435.00,1671.0,1673.0
49901,460.0,30.0,28.25,1406.0,435.00,1692.0,1686.0
49971,460.0,30.0,28.25,1393.0,435.00,1682.0,1674.0
50036,460.0,30.0,28.25,1390.0,435.00,1667.0,1666.0
50102,460.0,30.0,28.25,1388.0,435.00,1665.0,1667.0
50172,460.0,30.0,28.25,1384.0,435.00,1663.0,1670.0
50241,461.0,30.0,28.25,1377.0,436.00,1662.0,1661.0
50303,462.0,30.0,28.25,1368.0,436.00,1646.0,1652.0
50368,464.0,34.0,28.25,1368.0,436.00,1644.0,1639.0
50434,461.0,34.0,28.25,1362.0,436.00,1632.0,1632.0
50499,461.0,34.0,28.25,1356.0,435.00,1624.0,1624.0
50569,461.0,34.0,28.25,1346.0,436.00,1619.0,1623.0
50635,461.0,34.0,28.25,1343.0,436.00,1614.0,1614.0
50704,461.0,34.0,28.25,1360.0,435.00,1640.0,1637.0
50770,465.0,30.0,28.25,1394.0,435.00,1678.0,1673.0
50839,465.0,30.0,28.25,1388.0,436.00,1663.0,1662.0
50905,465.0,30.0,28.25,1379.0,436.00,1653.0,1653.0
50970,465.0,30.0,28.25,1379.0,436.00,1653.0,1653.0
51036,464.0,30.0,28.25,1384.0,436.00,1662.0,1658.0
51105,463.0,30.0,28.25,1377.0,436.00,1656.0,1649.0
51171,463.0,33.0,28.25,1363.0,436.00,1640.0,1645.0
51237,460.0,34.0,28.25,1360.0,436.00,1637.0,1636.0
51302,460.0,34.0,28.25,1350.0,436.00,1623.0,1629.0
51368,460.0,34.0,28.25,1354.0,435.00,1624.0,1618.0
51437,460.0,34.0,28.25,1343.0,435.00,1614.0,1614.0
51503,460.0,34.0,28.25,1338.0,436.00,1607.0,1607.0
51572,460.0,34.0,28.25,1351.0,435.00,1628.0,1639.0
51638,463.0,30.0,28.25,1394.0,435.00,1682.0,1688.0
51708,463.0,30.0,28.25,1397.0,436.00,1671.0,1671.0
51773,463.0,30.0,28.25,1380.0,436.00,1658.0,1665.0
51839,463.0,30.0,28.25,1376.0,435.00,1657.0,1663.0
51904,463.0,30.0,28.25,1380.0,435.00,1660.0,1666.0
51974,463.0,30.0,28.25,1375.0,435.00,1653.0,1660.0
52039,463.0,30.0,28.25,1371.0,435.00,1642.0,1641.0
52105,463.0,34.0,28.25,1358.0,435.00,1633.0,1640.0
52170,460.0,34.0,28.25,1352.0,435.00,1628.0,1632.0
52236,460.0,34.0,28.25,1355.0,435.00,1627.0,1620.0
52306,460.0,34.0,28.25,1345.0,435.00,1615.0,1614.0
52375,460.0,34.0,28.25,1337.0,435.00,1606.0,1606.0
52442,460.0,34.0,28.25,1341.0,435.00,1603.0,1606.0
52510,460.0,34.0,28.25,1380.0,435.00,1662.0,1661.0
52576,463.0,30.0,28.25,1394.0,435.00,1670.0,1670.0
52641,463.0,30.0,28.25,1379.0,435.00,1652.0,1652.0
52707,463.0,29.0,28.25,1371.0,435.00,1648.0,1641.0
52777,463.0,34.0,28.25,1371.0,435.00,1641.0,1642.0
52842,463.0,34.0,28.25,1368.0,435.00,1648.0,1646.0
52910,460.0,34.0,28.25,1362.0,435.00,1636.0,1629.0
52973,460.0,34.0,28.25,1355.0,435.00,1628.0,1623.0
53039,460.0,34.0,28.25,1348.0,435.00,1614.0,1614.0
53108,460.0,34.0,28.25,1343.0,435.00,1608.0,1608.0
53174,460.0,34.0,28.25,1338.0,435.00,1602.0,1602.0
53244,460.0,34.0,28.25,1334.0,435.00,1602.0,1602.0
53309,460.0,31.0,28.25,1327.0,435.00,1589.0,1589.0
53375,460.0,30.0,28.25,1327.0,435.00,1602.0,1603.0
53445,460.0,34.0,28.25,1372.0,435.00,1653.0,1646.0
53510,463.0,29.0,28.25,1362.0,435.00,1639.0,1642.0
53575,460.0,34.0,28.25,1356.0,435.00,1631.0,1629.0
53645,460.0,34.0,28.25,1352.0,435.00,1621.0,1623.0
53711,460.0,34.0,28.25,1358.0,435.00,1632.0,1632.0
53780,460.0,34.0,28.25,1355.0,435.00,1620.0,1621.0
53846,460.0,34.0,28.25,1341.0,435.00,1611.0,1618.0
53915,460.0,34.0,28.25,1334.0,435.00,1603.0,1603.0
53981,460.0,34.0,28.25,1337.0,435.00,1599.0,1598.0
54050,459.0,31.0,28.25,1331.0,435.00,1598.0,1599.0
54116,459.0,30.0,28.25,1327.0,435.00,1593.0,1586.0
54181,468.0,30.0,28.25,1322.0,435.00,1587.0,1581.0
54251,470.0,30.0,28.25,1327.0,435.00,1599.0,1600.0
54316,467.0,34.0,28.25,1372.0,435.00,1649.0,1648.0
54382,470.0,29.0,28.25,1367.0,435.00,1642.0,1642.0
54448,464.0,34.0,28.25,1354.0,435.00,1627.0,1628.0
54514,464.0,34.0,28.25,1350.0,435.00,1621.0,1616.0
54583,464.0,34.0,28.25,1347.0,435.00,1619.0,1618.0
54648,466.0,34.0,28.25,1341.0,435.00,1610.0,1614.0
54719,467.0,34.0,28.25,1331.0,435.00,1599.0,1597.0
54784,468.0,35.0,28.25,1331.0,435.00,1598.0,1597.0
54853,468.0,30.0,28.25,1325.0,435.00,1591.0,1583.0
54919,472.0,30.0,28.25,1321.0,435.00,1578.0,1577.0
54984,473.0,30.0,28.25,1316.0,435.00,1578.0,1577.0
55050,473.0,30.0,28.25,1312.0,435.00,1568.0,1568.0
55115,473.0,30.0,28.25,1322.0,435.00,1593.0,1594.0
55185,470.0,34.0,28.25,1355.0,435.00,1629.0,1635.0
55255,471.0,34.0,28.25,1347.0,435.00,1618.0,1611.0
55320,471.0,34.0,28.25,1341.0,435.00,1608.0,1602.0
55386,471.0,34.0,28.25,1339.0,435.00,1607.0,1608.0
55455,471.0,34.0,28.25,1334.0,435.00,1603.0,1608.0
55521,471.0,34.0,28.25,1334.0,435.00,1595.0,1595.0
55595,472.0,30.0,28.25,1329.0,435.00,1587.0,1594.0
55656,476.0,30.0,28.25,1322.0,435.00,1581.0,1586.0
55721,476.0,30.0,28.25,1318.0,435.00,1577.0,1582.0
55857,476.0,30.0,28.25,1309.0,435.00,1565.0,1564.0
55922,476.0,30.0,28.25,1316.0,435.00,1582.0,1583.0
55988,473.0,30.0,28.25,1342.0,435.00,1612.0,1620.0
56058,473.0,34.0,28.25,1334.0,435.00,1600.0,1607.0
56123,473.0,31.0,28.25,1329.0,435.00,1594.0,1587.0
56189,476.0,30.0,28.25,1326.0,435.00,1586.0,1587.0
56258,473.0,30.0,28.25,1325.0,435.00,1589.0,1590.0
56324,473.0,30.0,28.25,1326.0,435.00,1590.0,1589.0
56389,476.0,30.0,28.25,1317.0,435.00,1576.0,1581.0
56455,477.0,30.0,28.25,1309.0,435.00,1570.0,1572.0
56520,476.0,30.0,28.25,1310.0,435.00,1570.0,1570.0
56590,476.0,30.0,28.25,1300.0,435.00,1560.0,1560.0
56655,476.0,30.0,28.25,1304.0,435.00,1556.0,1556.0
56721,477.0,30.0,28.25,1303.0,435.00,1558.0,1566.0
56786,476.0,30.0,28.25,1341.0,435.00,1608.0,1616.0
56852,473.0,34.0,28.25,1348.0,435.00,1618.0,1616.0
56922,473.0,34.0,28.25,1337.0,435.00,1598.0,1604.0
56987,473.0,31.0,28.25,1333.0,435.00,1593.0,1593.0
57057,473.0,30.0,28.25,1335.0,435.00,1597.0,1603.0
57122,473.0,35.0,28.25,1335.0,434.00,1595.0,1597.0
57188,473.0,30.0,28.25,1329.0,434.00,1589.0,1594.0
57257,477.0,30.0,28.25,1322.0,434.00,1586.0,1586.0
57323,477.0,30.0,28.25,1317.0,434.00,1573.0,1579.0
57388,477.0,30.0,28.25,1308.0,434.00,1569.0,1569.0
57454,477.0,30.0,28.25,1308.0,434.00,1568.0,1568.0
57520,477.0,30.0,28.25,1305.0,433.00,1565.0,1562.0
57585,477.0,30.0,28.25,1334.0,433.00,1607.0,1603.0
57655,473.0,34.0,28.25,1355.0,433.00,1619.0,1618.0
57726,473.0,34.0,28.25,1338.0,433.00,1606.0,1606.0
57790,473.0,34.0,28.25,1337.0,433.00,1598.0,1600.0
57855,473.0,34.0,28.25,1341.0,433.00,1610.0,1610.0
57925,473.0,34.0,28.25,1342.0,433.00,1606.0,1610.0
57991,474.0,34.0,28.25,1330.0,433.00,1597.0,1595.0
58060,474.0,31.0,28.25,1330.0,433.00,1597.0,1595.0
58126,474.0,30.0,28.25,1325.0,433.00,1591.0,1583.0
58191,477.0,30.0,28.25,1321.0,433.00,1586.0,1578.0
58257,477.0,30.0,28.25,1317.0,433.00,1579.0,1579.0
58329,477.0,30.0,28.25,1313.0,433.00,1569.0,1574.0
58392,477.0,30.0,28.25,1324.0,433.00,1594.0,1595.0
58458,473.0,34.0,28.25,1358.0,433.00,1627.0,1629.0
58527,474.0,34.0,28.25,1347.0,432.00,1619.0,1610.0
58593,474.0,34.0,28.25,1341.0,432.00,1608.0,1607.0
58662,474.0,34.0,28.25,1341.0,432.00,1606.0,1611.0
58728,474.0,34.0,28.25,1337.0,432.00,1607.0,1614.0
58797,474.0,34.0,28.25,1331.0,432.00,1600.0,1600.0
58863,474.0,35.0,28.25,1333.0,432.00,1599.0,1594.0
58929,474.0,30.0,28.25,1322.0,432.00,1586.0,1586.0
58998,477.0,30.0,28.25,1314.0,432.00,1579.0,1579.0
59064,477.0,30.0,28.25,1309.0,432.00,1572.0,1572.0
59129,477.0,30.0,28.25,1310.0,432.00,1572.0,1572.0
59195,477.0,30.0,28.25,1312.0,432.00,1579.0,1582.0
59264,474.0,34.0,28.25,1360.0,431.00,1631.0,1632.0
59330,474.0,34.0,28.25,1354.0,431.00,1627.0,1625.0
59395,474.0,34.0,28.25,1352.0,431.00,1624.0,1620.0
59465,474.0,34.0,28.25,1350.0,431.00,1614.0,1615.0
59531,474.0,34.0,28.25,1347.0,431.00,1619.0,1619.0
59600,474.0,34.0,28.25,1351.0,431.00,1620.0,1620.0
59666,474.0,34.0,28.25,1341.0,431.00,1606.0,1610.0
59735,474.0,34.0,28.25,1329.0,430.00,1595.0,1595.0
59801,474.0,30.0,28.25,1329.0,430.00,1597.0,1594.0
59870,474.0,30.0,28.25,1325.0,430.00,1591.0,1583.0
59936,477.0,30.0,28.25,1320.0,430.00,1583.0,1577.0
60001,478.0,30.0,28.25,1314.0,430.00,1578.0,1578.0
60067,474.0,30.0,28.25,1347.0,430.00,1618.0,1620.0
60136,474.0,34.0,28.25,1367.0,430.00,1640.0,1637.0
60198,474.0,34.0,28.25,1351.0,430.00,1627.0,1625.0
60268,474.0,34.0,28.25,1350.0,430.00,1624.0,1623.0
60337,474.0,34.0,28.25,1352.0,429.00,1620.0,1620.0
60403,474.0,34.0,28.25,1350.0,430.00,1624.0,1631.0
60472,474.0,34.0,28.25,1350.0,429.00,1621.0,1615.0
60538,474.0,34.0,28.25,1343.0,429.00,1608.0,1607.0
60608,474.0,34.0,28.25,1338.0,429.00,1607.0,1600.0
60673,474.0,35.0,28.25,1326.0,429.00,1594.0,1600.0
60739,475.0,30.0,28.25,1326.0,429.00,1591.0,1591.0
60808,478.0,30.0,28.25,1318.0,429.00,1582.0,1582.0
60874,478.0,30.0,28.25,1322.0,429.00,1593.0,1595.0
60940,475.0,34.0,28.25,1359.0,429.00,1635.0,1635.0
61008,475.0,34.0,28.25,1356.0,429.00,1629.0,1631.0
61075,474.0,34.0,28.25,1348.0,429.00,1619.0,1612.0
61144,475.0,34.0,28.25,1346.0,429.00,1611.0,1611.0
61210,475.0,34.0,28.25,1345.0,429.00,1619.0,1618.0
61279,475.0,34.0,28.25,1342.0,428.00,1614.0,1619.0
61345,475.0,34.0,28.25,1333.0,429.00,1603.0,1610.0
61414,475.0,34.0,28.25,1333.0,428.00,1595.0,1595.0
61480,475.0,30.0,28.25,1327.0,428.00,1586.0,1593.0
61546,478.0,30.0,28.25,1321.0,428.00,1585.0,1585.0
61611,478.0,30.0,28.25,1314.0,428.00,1573.0,1572.0
61681,478.0,30.0,28.25,1310.0,427.00,1578.0,1581.0
61746,475.0,34.0,28.25,1362.0,427.00,1636.0,1637.0
61812,478.0,34.0,28.25,1363.0,427.00,1640.0,1645.0
61877,475.0,34.0,28.25,1364.0,427.00,1639.0,1640.0
61943,475.0,34.0,28.25,1359.0,427.00,1635.0,1628.0
62009,475.0,34.0,28.25,1363.0,426.00,1641.0,1635.0
62074,475.0,34.0,28.25,1364.0,426.00,1633.0,1633.0
62139,475.0,34.0,28.25,1356.0,426.00,1624.0,1623.0
62209,475.0,34.0,28.25,1345.0,426.00,1615.0,1621.0
62275,475.0,34.0,28.25,1343.0,426.00,1608.0,1614.0
62345,475.0,34.0,28.25,1330.0,426.00,1600.0,1599.0
62410,475.0,31.0,28.25,1330.0,425.00,1598.0,1597.0
62475,475.0,30.0,28.25,1322.0,425.00,1581.0,1581.0
62611,475.0,30.0,28.0,1375.0,424.00,1649.0,1649.0
62676,479.0,34.0,28.0,1368.0,424.00,1644.0,1637.0
62742,475.0,34.0,28.0,1359.0,423.00,1635.0,1627.0
62807,475.0,34.0,28.0,1358.0,423.00,1635.0,1627.0
62873,475.0,34.0,28.0,1363.0,423.00,1640.0,1632.0
62938,475.0,34.0,28.0,1359.0,422.00,1627.0,1627.0
63008,475.0,34.0,28.0,1345.0,422.00,1616.0,1623.0
63073,475.0,34.0,28.0,1342.0,421.00,1607.0,1611.0
63143,475.0,34.0,28.0,1329.0,421.00,1597.0,1595.0
63209,475.0,30.0,28.0,1327.0,421.00,1594.0,1593.0
63274,479.0,30.0,28.0,1318.0,421.00,1583.0,1582.0
63344,479.0,30.0,28.0,1318.0,421.00,1579.0,1587.0
63409,476.0,34.0,28.0,1351.0,420.00,1628.0,1628.0
63475,476.0,34.0,28.0,1356.0,420.00,1632.0,1637.0
63540,476.0,34.0,28.0,1350.0,420.00,1623.0,1629.0
63610,476.0,34.0,28.0,1352.0,420.00,1625.0,1619.0
63675,476.0,34.0,28.0,1352.0,421.00,1628.0,1627.0
63743,476.0,34.0,28.0,1348.0,420.00,1623.0,1621.0
63810,476.0,34.0,28.0,1348.0,420.00,1620.0,1620.0
63876,476.0,34.0,28.0,1341.0,420.00,1610.0,1610.0
63946,476.0,34.0,28.0,1326.0,421.00,1594.0,1594.0
64011,476.0,30.0,28.0,1326.0,420.00,1591.0,1591.0
64077,479.0,30.0,28.0,1321.0,420.00,1585.0,1583.0
64142,479.0,30.0,28.0,1313.0,420.00,1569.0,1570.0
64212,479.0,30.0,28.0,1346.0,420.00,1621.0,1627.0
64277,479.0,34.0,28.0,1376.0,420.00,1649.0,1649.0
64343,480.0,29.0,28.0,1366.0,420.00,1642.0,1649.0
64409,479.0,34.0,28.0,1366.0,420.00,1642.0,1635.0
64474,476.0,34.0,28.0,1366.0,420.00,1637.0,1637.0
64540,480.0,34.0,28.0,1364.0,420.00,1640.0,1645.0
64605,480.0,34.0,28.0,1363.0,419.00,1637.0,1631.0
64671,476.0,34.0,28.0,1354.0,420.00,1627.0,1627.0
64740,476.0,34.0,28.0,1348.0,419.00,1618.0,1612.0
64806,476.0,34.0,28.0,1341.0,419.00,1610.0,1603.0
64876,476.0,34.0,28.0,1334.0,419.00,1598.0,1600.0
64941,476.0,30.0,28.0,1326.0,419.00,1593.0,1586.0
65007,480.0,30.0,28.0,1330.0,419.00,1598.0,1600.0
65076,476.0,34.0,28.0,1377.0,419.00,1660.0,1656.0
65142,480.0,30.0,28.0,1380.0,419.00,1660.0,1653.0
65207,480.0,30.0,28.0,1366.0,419.00,1642.0,1648.0
65277,480.0,34.0,28.0,1366.0,419.00,1642.0,1636.0
65342,480.0,34.0,28.0,1368.0,419.00,1640.0,1640.0
65408,480.0,34.0,28.0,1362.0,419.00,1637.0,1642.0
65474,477.0,34.0,28.0,1352.0,419.00,1625.0,1632.0
65539,477.0,34.0,28.0,1350.0,419.00,1621.0,1615.0
65609,477.0,34.0,28.0,1341.0,419.00,1611.0,1603.0
65674,477.0,34.0,28.0,1333.0,420.00,1602.0,1600.0
65744,477.0,30.0,28.0,1326.0,420.00,1586.0,1586.0
65809,480.0,30.0,28.0,1317.0,420.00,1576.0,1574.0
65875,480.0,30.0,28.0,1333.0,420.00,1602.0,1603.0
65945,477.0,34.0,28.0,1363.0,420.00,1646.0,1646.0
66010,480.0,34.0,28.0,1366.0,420.00,1636.0,1635.0
66076,477.0,34.0,28.0,1356.0,420.00,1627.0,1624.0
66141,477.0,34.0,28.0,1356.0,420.00,1632.0,1633.0
66207,477.0,34.0,28.0,1364.0,420.00,1641.0,1640.0
66272,477.0,34.0,28.0,1360.0,420.00,1633.0,1628.0
66342,477.0,34.0,28.0,1346.0,420.00,1618.0,1618.0
66414,477.0,34.0,28.0,1337.0,420.00,1606.0,1606.0
66477,477.0,34.0,28.0,1334.0,420.00,1595.0,1597.0
66543,477.0,30.0,28.0,1325.0,420.00,1583.0,1585.0
66612,481.0,30.0,28.0,1312.0,420.00,1576.0,1573.0
66678,481.0,30.0,28.0,1309.0,420.00,1572.0,1566.0
66743,481.0,30.0,28.0,1343.0,420.00,1614.0,1618.0
66809,478.0,34.0,28.0,1367.0,420.00,1644.0,1646.0
66874,481.0,33.0,28.0,1369.0,420.00,1648.0,1639.0
66940,478.0,34.0,28.0,1363.0,419.00,1632.0,1632.0
67005,478.0,34.0,28.0,1360.0,418.00,1631.0,1631.0
67071,478.0,34.0,28.0,1358.0,418.00,1633.0,1635.0
67137,478.0,34.0,28.0,1351.0,419.00,1625.0,1624.0
67206,478.0,34.0,28.0,1347.0,419.00,1618.0,1618.0
67271,478.0,34.0,28.0,1335.0,419.00,1597.0,1603.0
67341,478.0,30.0,28.0,1326.0,419.00,1591.0,1585.0
67407,481.0,30.0,28.0,1318.0,419.00,1581.0,1581.0
67472,481.0,30.0,28.0,1310.0,419.00,1565.0,1572.0
67538,482.0,30.0,28.0,1303.0,419.00,1562.0,1564.0
67603,482.0,30.0,28.0,1320.0,419.00,1591.0,1594.0
67673,478.0,34.0,28.0,1358.0,419.00,1639.0,1640.0
67738,478.0,34.0,28.0,1362.0,419.00,1636.0,1631.0
67804,478.0,34.0,28.0,1356.0,419.00,1629.0,1629.0
67870,478.0,34.0,28.0,1352.0,419.00,1620.0,1620.0
67939,478.0,34.0,28.0,1356.0,419.00,1631.0,1631.0
68009,478.0,34.0,28.0,1350.0,420.00,1615.0,1615.0
68074,478.0,34.0,28.0,1339.0,420.00,1603.0,1602.0
68144,479.0,35.0,28.0,1329.0,420.00,1591.0,1595.0
68209,482.0,30.0,28.0,1321.0,420.00,1586.0,1585.0
68275,482.0,30.0,28.0,1313.0,420.00,1572.0,1577.0
68341,482.0,30.0,28.0,1306.0,420.00,1569.0,1561.0
68406,482.0,30.0,28.0,1293.0,420.00,1553.0,1553.0
68471,482.0,30.0,28.0,1303.0,420.00,1568.0,1572.0
68541,479.0,31.0,28.0,1350.0,420.00,1623.0,1618.0
68607,479.0,34.0,28.0,1347.0,420.00,1620.0,1619.0
68676,479.0,34.0,28.0,1338.0,420.00,1608.0,1614.0
68742,479.0,34.0,28.0,1335.0,420.00,1607.0,1608.0
68811,479.0,34.0,28.0,1346.0,420.00,1618.0,1623.0
68877,479.0,34.0,28.0,1348.0,420.00,1619.0,1618.0
68947,479.0,34.0,28.0,1339.0,420.00,1607.0,1607.0
69012,479.0,31.0,28.0,1324.0,420.00,1589.0,1589.0
69080,483.0,30.0,28.0,1314.0,420.00,1578.0,1578.0
69148,483.0,30.0,28.0,1306.0,420.00,1569.0,1569.0
69213,483.0,30.0,28.0,1305.0,420.00,1558.0,1565.0
69344,483.0,29.0,28.25,1334.0,420.00,1603.0,1606.0
69414,480.0,34.0,28.25,1358.0,420.00,1632.0,1640.0
69479,480.0,34.0,28.25,1362.0,420.00,1636.0,1636.0
69545,479.0,34.0,28.25,1355.0,420.00,1620.0,1620.0
69614,480.0,34.0,28.25,1356.0,420.00,1629.0,1629.0
69680,480.0,34.0,28.25,1355.0,420.00,1629.0,1636.0
69745,483.0,34.0,28.25,1368.0,420.00,1640.0,1633.0
69811,480.0,34.0,28.25,1358.0,420.00,1628.0,1621.0
69880,480.0,34.0,28.25,1345.0,420.00,1607.0,1606.0
69946,480.0,34.0,28.25,1335.0,419.00,1600.0,1599.0
70012,480.0,30.0,28.25,1326.0,420.00,1583.0,1582.0
70082,483.0,30.0,28.25,1318.0,419.00,1581.0,1576.0
70147,483.0,30.0,28.25,1322.0,420.00,1589.0,1590.0
70212,480.0,34.0,28.25,1368.0,419.00,1644.0,1639.0
70278,483.0,34.0,28.25,1368.0,419.00,1645.0,1650.0
70348,484.0,34.0,28.25,1371.0,420.00,1644.0,1637.0
70413,480.0,34.0,28.25,1362.0,419.00,1642.0,1628.0
70478,480.0,34.0,28.25,1366.0,420.00,1635.0,1635.0
70544,480.0,34.0,28.25,1363.0,420.00,1629.0,1629.0
70610,480.0,34.0,28.25,1351.0,420.00,1621.0,1621.0
70679,480.0,34.0,28.25,1341.0,420.00,1608.0,1608.0
70745,481.0,34.0,28.25,1325.0,420.00,1590.0,1591.0
70810,480.0,30.0,28.25,1325.0,420.00,1582.0,1587.0
70880,484.0,30.0,28.25,1318.0,420.00,1573.0,1579.0
70945,484.0,30.0,28.25,1309.0,420.00,1573.0,1574.0
71011,481.0,30.0,28.25,1352.0,420.00,1625.0,1628.0
71077,481.0,34.0,28.25,1366.0,420.00,1639.0,1639.0
71142,481.0,34.0,28.25,1359.0,421.00,1629.0,1629.0
71212,481.0,34.0,28.25,1350.0,421.00,1614.0,1614.0
71277,481.0,34.0,28.25,1348.0,422.00,1619.0,1620.0
71347,481.0,34.0,28.25,1355.0,422.00,1625.0,1625.0
71413,481.0,34.0,28.25,1335.0,422.00,1602.0,1602.0
71482,481.0,30.0,28.25,1320.0,422.00,1586.0,1582.0
71548,485.0,30.0,28.25,1312.0,422.00,1576.0,1574.0
71613,485.0,30.0,28.25,1313.0,422.00,1574.0,1573.0
71679,485.0,30.0,28.25,1303.0,422.00,1562.0,1561.0
71744,485.0,30.0,28.25,1316.0,422.00,1585.0,1587.0
71816,482.0,34.0,28.25,1355.0,422.00,1631.0,1637.0
71879,482.0,34.0,28.25,1366.0,422.00,1641.0,1635.0
71945,482.0,34.0,28.25,1360.0,422.00,1633.0,1627.0
72014,482.0,34.0,28.25,1347.0,422.00,1619.0,1618.0
72080,482.0,34.0,28.25,1358.0,422.00,1631.0,1631.0
72150,482.0,34.0,28.25,1354.0,422.00,1620.0,1619.0
72215,482.0,34.0,28.25,1338.0,422.00,1607.0,1606.0
72285,482.0,34.0,28.25,1334.0,422.00,1595.0,1594.0
72350,482.0,30.0,28.25,1320.0,422.00,1585.0,1585.0
72416,486.0,30.0,28.25,1320.0,422.00,1577.0,1577.0
72481,486.0,30.0,28.25,1308.0,422.00,1570.0,1570.0
72551,486.0,30.0,28.25,1334.0,422.00,1607.0,1610.0
72617,482.0,34.0,28.25,1371.0,422.00,1641.0,1642.0
72682,486.0,34.0,28.25,1371.0,422.00,1646.0,1645.0
72748,483.0,34.0,28.25,1363.0,422.00,1637.0,1631.0
72813,482.0,34.0,28.25,1364.0,422.00,1636.0,1636.0
72879,486.0,34.0,28.25,1364.0,422.00,1644.0,1649.0
72944,486.0,34.0,28.25,1367.0,422.00,1642.0,1637.0
73010,483.0,34.0,28.25,1358.0,422.00,1632.0,1625.0
73079,483.0,34.0,28.25,1343.0,422.00,1615.0,1615.0
73145,483.0,34.0,28.25,1337.0,423.00,1606.0,1612.0
73214,483.0,34.0,28.25,1335.0,422.00,1597.0,1597.0
73280,483.0,30.0,28.25,1333.0,423.00,1594.0,1600.0
73350,483.0,34.0,28.25,1371.0,422.00,1650.0,1646.0
73415,487.0,30.0,28.25,1388.0,422.00,1667.0,1662.0
73481,487.0,30.0,28.25,1381.0,422.00,1661.0,1653.0
73546,487.0,30.0,28.25,1369.0,422.00,1646.0,1652.0
73612,487.0,30.0,28.25,1380.0,422.00,1653.0,1653.0
73681,487.0,30.0,28.25,1380.0,422.00,1652.0,1652.0
73747,487.0,29.0,28.25,1364.0,422.00,1649.0,1645.0
73813,484.0,34.0,28.25,1359.0,422.00,1633.0,1627.0
73878,484.0,34.0,28.25,1350.0,422.00,1614.0,1612.0
73948,484.0,34.0,28.25,1342.0,422.00,1604.0,1602.0
74013,484.0,34.0,28.25,1334.0,422.00,1600.0,1599.0
74083,484.0,30.0,28.25,1331.0,422.00,1603.0,1606.0
74148,484.0,34.0,28.25,1380.0,422.00,1665.0,1671.0
74214,487.0,30.0,28.25,1400.0,422.00,1677.0,1675.0
74283,487.0,30.0,28.25,1390.0,422.00,1673.0,1678.0
74349,487.0,30.0,28.25,1392.0,422.00,1674.0,1667.0
74414,487.0,30.0,28.25,1398.0,422.00,1675.0,1681.0
74486,488.0,30.0,28.25,1396.0,422.00,1678.0,1671.0
74550,488.0,30.0,28.25,1387.0,422.00,1660.0,1658.0
74615,488.0,30.0,28.25,1376.0,422.00,1652.0,1645.0
74681,488.0,34.0,28.25,1360.0,422.00,1636.0,1640.0
74747,484.0,34.0,28.25,1354.0,422.00,1627.0,1632.0
74816,485.0,34.0,28.25,1352.0,422.00,1621.0,1616.0
74883,485.0,34.0,28.25,1351.0,422.00,1620.0,1623.0
74951,488.0,29.0,28.25,1389.0,423.00,1683.0,1678.0
75017,488.0,30.0,28.25,1402.0,423.00,1692.0,1684.0
75082,488.0,30.0,28.25,1396.0,423.00,1679.0,1684.0
75152,488.0,30.0,28.25,1394.0,423.00,1671.0,1671.0
75217,488.0,30.0,28.25,1394.0,423.00,1679.0,1684.0
75287,488.0,30.0,28.25,1397.0,422.00,1673.0,1671.0
75352,488.0,30.0,28.25,1380.0,422.00,1660.0,1666.0
75418,488.0,30.0,28.25,1375.0,423.00,1646.0,1645.0
75483,489.0,34.0,28.25,1367.0,423.00,1641.0,1640.0
75549,485.0,34.0,28.25,1358.0,423.00,1629.0,1631.0
75619,485.0,34.0,28.25,1350.0,423.00,1614.0,1614.0
75684,485.0,34.0,28.25,1341.0,423.00,1606.0,1603.0
75754,486.0,34.0,28.25,1366.0,423.00,1641.0,1644.0
75819,489.0,30.0,28.25,1398.0,423.00,1675.0,1683.0
75889,489.0,30.0,28.25,1397.0,423.00,1673.0,1674.0
75955,489.0,30.0,28.25,1389.0,423.00,1661.0,1661.0
76090,489.0,30.0,28.25,1394.0,423.00,1669.0,1674.0
76155,489.0,30.0,28.25,1379.0,423.00,1657.0,1663.0
76221,489.0,30.0,28.25,1375.0,423.00,1645.0,1644.0
76286,489.0,34.0,28.25,1359.0,423.00,1640.0,1639.0
76352,486.0,34.0,28.25,1358.0,423.00,1629.0,1629.0
76421,486.0,34.0,28.25,1350.0,423.00,1619.0,1612.0
76487,486.0,34.0,28.25,1342.0,423.00,1610.0,1603.0
76557,486.0,34.0,28.25,1337.0,423.00,1604.0,1606.0
76622,486.0,34.0,28.25,1377.0,424.00,1654.0,1658.0
76692,490.0,30.0,28.25,1401.0,424.00,1692.0,1686.0
76757,490.0,30.0,28.25,1400.0,424.00,1684.0,1690.0
76827,490.0,30.0,28.25,1401.0,424.00,1677.0,1684.0
76893,490.0,30.0,28.25,1401.0,424.00,1679.0,1679.0
76958,490.0,30.0,28.25,1398.0,424.00,1686.0,1681.0
77028,490.0,30.0,28.25,1394.0,424.00,1669.0,1670.0
77093,490.0,30.0,28.25,1377.0,424.00,1657.0,1662.0
77159,490.0,30.0,28.25,1375.0,425.00,1645.0,1644.0
77227,490.0,34.0,28.25,1360.0,425.00,1642.0,1641.0
77290,487.0,34.0,28.25,1358.0,425.00,1632.0,1631.0
77359,487.0,34.0,28.25,1352.0,425.00,1616.0,1615.0
77426,487.0,34.0,28.25,1341.0,425.00,1603.0,1603.0
77495,487.0,34.0,28.25,1339.0,425.00,1612.0,1615.0
77560,487.0,34.0,28.25,1387.0,425.00,1666.0,1667.0
77626,490.0,30.0,28.25,1393.0,425.00,1675.0,1681.0
77695,490.0,30.0,28.25,1394.0,425.00,1671.0,1671.0
77761,490.0,30.0,28.25,1388.0,425.00,1663.0,1670.0
77826,491.0,30.0,28.25,1389.0,426.00,1679.0,1679.0
77896,491.0,30.0,28.25,1393.0,425.00,1667.0,1666.0
77961,491.0,30.0,28.25,1383.0,426.00,1656.0,1654.0
78027,491.0,30.0,28.25,1372.0,425.00,1649.0,1642.0
78093,491.0,34.0,28.25,1364.0,426.00,1632.0,1633.0
78158,487.0,34.0,28.25,1356.0,426.00,1623.0,1623.0
78234,487.0,34.0,28.25,1342.0,426.00,1614.0,1619.0
78293,488.0,34.0,28.25,1335.0,426.00,1604.0,1611.0
78363,488.0,34.0,28.25,1334.0,426.00,1604.0,1607.0
78430,488.0,34.0,28.25,1379.0,426.00,1663.0,1673.0
78494,491.0,30.0,28.25,1405.0,426.00,1682.0,1682.0
78564,491.0,30.0,28.25,1392.0,426.00,1679.0,1673.0
78629,491.0,30.0,28.25,1392.0,426.00,1666.0,1665.0
78695,491.0,30.0,28.25,1398.0,426.00,1684.0,1690.0
78764,491.0,30.0,28.25,1409.0,426.00,1687.0,1692.0
78830,491.0,30.0,28.25,1398.0,426.00,1674.0,1673.0
78899,491.0,30.0,28.25,1384.0,426.00,1662.0,1667.0
78965,491.0,30.0,28.25,1372.0,426.00,1649.0,1654.0
79030,492.0,34.0,28.25,1369.0,426.00,1644.0,1636.0
79096,488.0,34.0,28.25,1360.0,426.00,1627.0,1627.0
79162,488.0,34.0,28.25,1345.0,426.00,1614.0,1619.0
79231,488.0,34.0,28.25,1337.0,426.00,1606.0,1611.0
79301,488.0,34.0,28.25,1355.0,426.00,1633.0,1642.0
79366,492.0,30.0,28.25,1402.0,426.00,1695.0,1690.0
79432,492.0,30.0,28.25,1402.0,427.00,1691.0,1686.0
79501,492.0,30.0,28.25,1396.0,426.00,1683.0,1678.0
79567,492.0,30.0,28.25,1397.0,426.00,1671.0,1673.0
79637,492.0,30.0,28.25,1396.0,426.00,1686.0,1681.0
79702,492.0,30.0,28.25,1389.0,426.00,1670.0,1675.0
79768,492.0,30.0,28.25,1377.0,426.00,1656.0,1661.0
79833,492.0,30.0,28.25,1371.0,426.00,1640.0,1640.0
79901,488.0,34.0,28.25,1355.0,426.00,1628.0,1633.0
79968,489.0,34.0,28.25,1351.0,426.00,1621.0,1615.0
80038,489.0,34.0,28.25,1343.0,426.00,1611.0,1606.0
80103,489.0,34.0,28.25,1335.0,426.00,1602.0,1602.0
80169,489.0,30.0,28.25,1334.0,426.00,1597.0,1598.0
80239,489.0,34.0,28.25,1369.0,426.00,1650.0,1658.0
80305,492.0,30.0,28.25,1380.0,426.00,1661.0,1666.0
80370,492.0,30.0,28.25,1373.0,426.00,1650.0,1656.0
80439,492.0,34.0,28.25,1369.0,426.00,1639.0,1639.0
80505,492.0,34.0,28.25,1367.0,426.00,1642.0,1650.0
80570,492.0,34.0,28.25,1371.0,426.00,1645.0,1639.0
80636,489.0,34.0,28.25,1360.0,426.00,1627.0,1627.0
80702,489.0,34.0,28.25,1346.0,426.00,1614.0,1620.0
80771,489.0,34.0,28.25,1335.0,426.00,1604.0,1608.0
80837,489.0,34.0,28.25,1334.0,426.00,1595.0,1595.0
80906,489.0,30.0,28.25,1327.0,426.00,1587.0,1593.0
80972,492.0,30.0,28.25,1322.0,426.00,1579.0,1586.0
81037,492.0,30.0,28.25,1335.0,426.00,1607.0,1610.0
81103,489.0,34.0,28.25,1380.0,426.00,1660.0,1656.0
81172,492.0,30.0,28.25,1385.0,426.00,1663.0,1657.0
81238,492.0,30.0,28.25,1373.0,426.00,1654.0,1654.0
81304,493.0,34.0,28.25,1371.0,426.00,1641.0,1641.0
81369,492.0,34.0,28.25,1369.0,426.00,1653.0,1654.0
81435,492.0,33.0,28.25,1372.0,426.00,1641.0,1640.0
81501,489.0,34.0,28.25,1355.0,426.00,1628.0,1633.0
81570,489.0,34.0,28.25,1351.0,426.00,1619.0,1612.0
81635,489.0,34.0,28.25,1339.0,426.00,1606.0,1607.0
81705,489.0,35.0,28.25,1327.0,426.00,1593.0,1591.0
81771,489.0,30.0,28.25,1325.0,426.00,1583.0,1589.0
81837,493.0,30.0,28.25,1322.0,426.00,1579.0,1586.0
81906,489.0,35.0,28.25,1356.0,426.00,1628.0,1629.0
81971,493.0,29.0,28.25,1383.0,426.00,1661.0,1654.0
82038,493.0,30.0,28.25,1371.0,426.00,1648.0,1653.0
82102,493.0,34.0,28.25,1367.0,426.00,1640.0,1633.0
82168,489.0,34.0,28.25,1363.0,426.00,1631.0,1631.0
82233,489.0,34.0,28.25,1362.0,426.00,1629.0,1628.0
82299,489.0,34.0,28.25,1354.0,426.00,1620.0,1619.0
82368,489.0,34.0,28.25,1346.0,426.00,1608.0,1607.0
82434,489.0,34.0,28.25,1338.0,426.00,1603.0,1598.0
82500,489.0,31.0,28.25,1333.0,426.00,1591.0,1598.0
82571,489.0,30.0,28.25,1326.0,426.00,1590.0,1590.0
82635,493.0,30.0,28.25,1322.0,426.00,1585.0,1585.0
82700,489.0,30.0,28.25,1343.0,426.00,1608.0,1612.0
82835,489.0,34.0,27.75,1359.0,426.00,1639.0,1637.0
82905,489.0,34.0,27.75,1354.0,426.00,1619.0,1618.0
82971,489.0,34.0,27.75,1346.0,426.00,1618.0,1623.0
83040,489.0,34.0,27.75,1352.0,426.00,1623.0,1623.0
83106,489.0,34.0,27.75,1345.0,426.00,1612.0,1606.0
83175,489.0,34.0,27.75,1337.0,426.00,1597.0,1602.0
83241,489.0,30.0,27.75,1329.0,427.00,1593.0,1586.0
83306,493.0,30.0,27.75,1324.0,426.00,1579.0,1579.0
83376,493.0,30.0,27.75,1318.0,427.00,1581.0,1581.0
83442,493.0,30.0,27.75,1316.0,426.00,1579.0,1582.0
83507,489.0,31.0,27.75,1359.0,426.00,1628.0,1631.0
83573,493.0,29.0,27.75,1385.0,426.00,1665.0,1660.0
83642,493.0,30.0,27.75,1384.0,426.00,1661.0,1656.0
83708,493.0,30.0,27.75,1371.0,426.00,1653.0,1654.0
83774,493.0,30.0,27.75,1380.0,426.00,1652.0,1660.0
83839,493.0,30.0,27.75,1383.0,426.00,1654.0,1653.0
83904,493.0,30.0,27.75,1373.0,426.00,1649.0,1641.0
83970,490.0,34.0,27.75,1362.0,426.00,1629.0,1629.0
84040,490.0,34.0,27.75,1352.0,426.00,1621.0,1621.0
84109,490.0,34.0,27.75,1345.0,426.00,1611.0,1612.0
84175,490.0,34.0,27.75,1331.0,426.00,1598.0,1603.0
84240,490.0,31.0,27.75,1333.0,426.00,1599.0,1594.0
84310,490.0,34.0,27.75,1369.0,426.00,1642.0,1646.0
84376,493.0,30.0,27.75,1400.0,426.00,1675.0,1677.0
84445,493.0,30.0,27.75,1397.0,426.00,1678.0,1671.0
84511,493.0,30.0,27.75,1387.0,427.00,1660.0,1658.0
84576,493.0,30.0,27.75,1385.0,426.00,1658.0,1658.0
84642,493.0,30.0,27.75,1385.0,427.00,1658.0,1657.0
84711,493.0,30.0,27.75,1375.0,427.00,1650.0,1642.0
84777,493.0,34.0,27.75,1362.0,427.00,1629.0,1628.0
84842,489.0,34.0,27.75,1347.0,426.00,1616.0,1623.0
84912,489.0,34.0,27.75,1346.0,426.00,1615.0,1614.0
84977,489.0,34.0,27.75,1331.0,426.00,1599.0,1603.0
85047,489.0,30.0,27.75,1331.0,426.00,1598.0,1591.0
85113,489.0,34.0,27.75,1351.0,427.00,1627.0,1628.0
85178,493.0,34.0,27.75,1383.0,427.00,1657.0,1657.0
85244,493.0,30.0,27.75,1383.0,427.00,1653.0,1653.0
85316,493.0,29.0,27.75,1369.0,427.00,1646.0,1645.0
85379,493.0,34.0,27.75,1369.0,427.00,1645.0,1639.0
85446,493.0,34.0,27.75,1367.0,427.00,1641.0,1648.0
85510,493.0,34.0,27.75,1364.0,427.00,1637.0,1639.0
85576,489.0,34.0,27.75,1350.0,427.00,1619.0,1619.0
85645,489.0,34.0,27.75,1341.0,427.00,1610.0,1614.0
85711,489.0,34.0,27.75,1334.0,427.00,1602.0,1599.0
85780,489.0,34.0,27.75,1334.0,427.00,1600.0,1593.0
85846,489.0,30.0,27.75,1325.0,427.00,1590.0,1590.0
85916,489.0,34.0,27.75,1363.0,427.00,1635.0,1637.0
85981,493.0,30.0,27.75,1398.0,427.00,1674.0,1674.0
86047,493.0,30.0,27.75,1392.0,427.00,1679.0,1674.0
86116,493.0,30.0,27.75,1392.0,427.00,1663.0,1663.0
86182,493.0,30.0,27.75,1390.0,427.00,1665.0,1666.0
86247,493.0,30.0,27.75,1388.0,427.00,1667.0,1674.0
86313,493.0,30.0,27.75,1385.0,427.00,1662.0,1656.0
86382,493.0,30.0,27.75,1368.0,427.00,1642.0,1648.0
86449,489.0,34.0,27.75,1363.0,427.00,1635.0,1635.0
86513,489.0,34.0,27.75,1348.0,427.00,1619.0,1619.0
86583,489.0,34.0,27.75,1342.0,427.00,1610.0,1615.0
86649,489.0,34.0,27.75,1335.0,427.00,1603.0,1604.0
86719,489.0,34.0,27.75,1364.0,427.00,1649.0,1654.0
86784,493.0,30.0,27.75,1409.0,427.00,1687.0,1688.0
86853,493.0,30.0,27.75,1410.0,427.00,1686.0,1684.0
86919,493.0,30.0,27.75,1401.0,427.00,1682.0,1675.0
86989,493.0,30.0,27.75,1398.0,427.00,1675.0,1682.0
87054,493.0,30.0,27.75,1401.0,427.00,1678.0,1677.0
87120,493.0,30.0,27.75,1384.0,427.00,1663.0,1667.0
87189,493.0,30.0,27.75,1377.0,427.00,1650.0,1649.0
87255,492.0,34.0,27.75,1367.0,427.00,1642.0,1635.0
87320,489.0,34.0,27.75,1359.0,427.00,1632.0,1625.0
87386,489.0,34.0,27.75,1346.0,427.00,1616.0,1616.0
87456,489.0,34.0,27.75,1339.0,427.00,1608.0,1608.0
87521,489.0,34.0,27.75,1338.0,427.00,1610.0,1612.0
87587,489.0,34.0,27.75,1376.0,427.00,1660.0,1667.0
87656,492.0,30.0,27.75,1397.0,427.00,1679.0,1671.0
87722,493.0,30.0,27.75,1390.0,427.00,1663.0,1663.0
87787,492.0,30.0,27.75,1383.0,427.00,1656.0,1656.0
87857,492.0,30.0,27.75,1389.0,427.00,1663.0,1662.0
87923,492.0,30.0,27.75,1380.0,427.00,1658.0,1663.0
87990,492.0,30.0,27.75,1375.0,427.00,1645.0,1644.0
88053,492.0,34.0,27.75,1359.0,427.00,1635.0,1640.0
88119,489.0,34.0,27.75,1352.0,427.00,1625.0,1629.0
88189,489.0,34.0,27.75,1352.0,427.00,1621.0,1615.0
88254,489.0,34.0,27.75,1345.0,427.00,1608.0,1607.0
88324,489.0,34.0,27.75,1342.0,427.00,1612.0,1606.0
88389,489.0,34.0,27.75,1380.0,427.00,1663.0,1661.0
88455,492.0,30.0,27.75,1400.0,427.00,1684.0,1690.0
88524,492.0,30.0,27.75,1406.0,427.00,1682.0,1687.0
88590,492.0,30.0,27.75,1400.0,427.00,1675.0,1675.0
88656,492.0,30.0,27.75,1398.0,427.00,1681.0,1688.0
88725,492.0,30.0,27.75,1405.0,427.00,1681.0,1686.0
88791,492.0,30.0,27.75,1394.0,427.00,1669.0,1667.0
88856,492.0,30.0,27.75,1384.0,427.00,1654.0,1654.0
88926,492.0,30.0,27.75,1372.0,427.00,1648.0,1641.0
88991,488.0,34.0,27.75,1363.0,427.00,1636.0,1629.0
89057,488.0,34.0,27.75,1350.0,427.00,1619.0,1625.0
89127,488.0,34.0,27.75,1347.0,427.00,1614.0,1614.0
89192,487.0,34.0,27.75,1355.0,427.00,1631.0,1633.0
89262,489.0,30.0,27.75,1392.0,427.00,1677.0,1683.0
89327,489.0,30.0,27.75,1402.0,427.00,1678.0,1677.0
89393,488.0,30.0,27.75,1397.0,427.00,1678.0,1670.0
89462,488.0,30.0,27.75,1390.0,427.00,1665.0,1665.0
89594,488.0,30.0,27.75,1390.0,427.00,1665.0,1670.0
89663,488.0,30.0,27.75,1373.0,427.00,1652.0,1657.0
89729,488.0,33.0,27.75,1368.0,427.00,1644.0,1637.0
89794,485.0,34.0,27.75,1359.0,427.00,1627.0,1624.0
89860,484.0,34.0,27.75,1346.0,427.00,1616.0,1623.0
89929,484.0,34.0,27.75,1345.0,427.00,1607.0,1612.0
89995,485.0,34.0,27.75,1331.0,427.00,1597.0,1597.0
90064,484.0,34.0,27.75,1346.0,427.00,1614.0,1616.0
90130,488.0,34.0,27.75,1377.0,427.00,1658.0,1666.0
90196,488.0,30.0,27.75,1379.0,427.00,1657.0,1662.0
90261,488.0,30.0,27.75,1376.0,427.00,1646.0,1645.0
90331,488.0,34.0,27.75,1371.0,427.00,1649.0,1649.0
90396,488.0,34.0,27.75,1376.0,427.00,1646.0,1648.0
90462,488.0,33.0,27.75,1371.0,427.00,1646.0,1639.0
90527,484.0,34.0,27.75,1362.0,427.00,1629.0,1628.0
90593,484.0,34.0,27.75,1346.0,427.00,1618.0,1621.0
90663,484.0,34.0,27.75,1345.0,427.00,1614.0,1614.0
90730,484.0,34.0,27.75,1331.0,427.00,1598.0,1604.0
90798,484.0,31.0,27.75,1331.0,427.00,1598.0,1591.0
90863,484.0,30.0,27.75,1324.0,427.00,1590.0,1593.0
90933,484.0,34.0,27.75,1366.0,427.00,1645.0,1654.0
90999,488.0,30.0,27.75,1388.0,427.00,1667.0,1674.0
91064,488.0,30.0,27.75,1390.0,427.00,1670.0,1663.0
91133,488.0,30.0,27.75,1385.0,427.00,1662.0,1656.0
91199,488.0,30.0,27.75,1387.0,427.00,1666.0,1695.0
91264,487.0,30.0,27.75,1394.0,427.00,1674.0,1681.0
91334,488.0,30.0,27.75,1392.0,426.00,1670.0,1663.0
91400,487.0,30.0,27.75,1383.0,426.00,1658.0,1652.0
91465,487.0,28.0,27.75,1367.0,426.00,1640.0,1645.0
91531,484.0,34.0,27.75,1358.0,426.00,1635.0,1635.0
91600,484.0,34.0,27.75,1358.0,426.00,1620.0,1619.0
91666,484.0,34.0,27.75,1343.0,426.00,1610.0,1611.0
91735,484.0,34.0,27.75,1351.0,426.00,1624.0,1633.0
91801,488.0,30.0,27.75,1404.0,426.00,1682.0,1690.0
91867,487.0,30.0,27.75,1410.0,426.00,1686.0,1691.0
91936,487.0,30.0,27.75,1404.0,426.00,1679.0,1678.0
92002,488.0,30.0,27.75,1389.0,426.00,1675.0,1669.0
92072,487.0,30.0,27.75,1398.0,426.00,1674.0,1674.0
92137,487.0,30.0,27.75,1388.0,426.00,1673.0,1673.0
92202,487.0,30.0,27.75,1377.0,426.00,1660.0,1658.0
92268,487.0,29.0,27.75,1366.0,426.00,1641.0,1640.0
92334,484.0,34.0,27.75,1356.0,426.00,1629.0,1636.0
92403,484.0,34.0,27.75,1356.0,426.00,1620.0,1620.0
92473,484.0,34.0,27.75,1343.0,426.00,1611.0,1623.0
92539,484.0,34.0,27.75,1335.0,425.00,1602.0,1602.0
92608,484.0,34.0,27.75,1350.0,425.00,1625.0,1628.0
92673,487.0,30.0,27.75,1390.0,425.00,1666.0,1667.0
92739,487.0,30.0,27.75,1390.0,425.00,1662.0,1661.0
92805,487.0,30.0,27.75,1380.0,425.00,1649.0,1649.0
92870,487.0,33.0,27.75,1375.0,418.00,1652.0,1645.0
92940,487.0,34.0,27.75,1367.0,419.00,1635.0,1635.0
93005,484.0,34.0,27.75,1355.0,419.00,1628.0,1627.0
93071,484.0,34.0,27.75,1354.0,419.00,1624.0,1619.0
93142,484.0,34.0,27.75,1346.0,419.00,1615.0,1607.0
93206,484.0,34.0,27.75,1339.0,419.00,1607.0,1606.0
93272,484.0,35.0,27.75,1327.0,419.00,1593.0,1591.0
93341,484.0,30.0,27.75,1329.0,419.00,1594.0,1593.0
93411,484.0,31.0,27.75,1346.0,419.00,1621.0,1625.0
93476,487.0,30.0,27.75,1392.0,419.00,1669.0,1669.0
93542,487.0,30.0,27.75,1394.0,419.00,1669.0,1675.0
93608,487.0,30.0,27.75,1383.0,419.00,1667.0,1666.0
93673,487.0,30.0,27.75,1379.0,419.00,1665.0,1665.0
93742,487.0,30.0,27.75,1392.0,419.00,1671.0,1663.0
93808,487.0,30.0,27.75,1384.0,419.00,1661.0,1653.0
93874,487.0,29.0,27.75,1366.0,419.00,1639.0,1644.0
93939,484.0,34.0,27.75,1352.0,419.00,1625.0,1631.0
94009,484.0,34.0,27.75,1351.0,420.00,1620.0,1614.0
94075,484.0,34.0,27.75,1343.0,419.00,1611.0,1604.0
94144,484.0,34.0,27.75,1338.0,419.00,1604.0,1604.0
94209,484.0,34.0,27.75,1367.0,419.00,1648.0,1644.0
94275,487.0,30.0,27.75,1398.0,420.00,1675.0,1675.0
94345,487.0,30.0,27.75,1390.0,420.00,1671.0,1677.0
94410,487.0,30.0,27.75,1387.0,419.00,1665.0,1658.0
94476,487.0,30.0,27.75,1377.0,419.00,1662.0,1656.0
94545,487.0,30.0,27.75,1377.0,419.00,1662.0,1661.0
94611,487.0,30.0,27.75,1368.0,419.00,1645.0,1649.0
94676,487.0,34.0,27.75,1364.0,419.00,1639.0,1639.0
94742,483.0,34.0,27.75,1358.0,419.00,1629.0,1629.0
94807,483.0,34.0,27.75,1351.0,420.00,1618.0,1616.0
94877,484.0,34.0,27.75,1345.0,420.00,1610.0,1608.0
94943,483.0,34.0,27.75,1343.0,420.00,1607.0,1607.0
95012,483.0,34.0,27.75,1368.0,420.00,1656.0,1657.0
95078,487.0,30.0,27.75,1396.0,420.00,1677.0,1670.0
95147,487.0,30.0,27.75,1390.0,420.00,1663.0,1663.0
95213,487.0,30.0,27.75,1381.0,420.00,1653.0,1653.0
95278,487.0,30.0,27.75,1385.0,420.00,1658.0,1660.0
95344,487.0,30.0,27.75,1384.0,420.00,1658.0,1657.0
95414,487.0,30.0,27.75,1377.0,420.00,1652.0,1646.0
95481,487.0,34.0,27.75,1363.0,420.00,1637.0,1642.0
95545,483.0,34.0,27.75,1355.0,420.00,1628.0,1635.0
95610,483.0,34.0,27.75,1355.0,420.00,1620.0,1620.0
95680,483.0,34.0,27.75,1343.0,420.00,1614.0,1614.0
95745,483.0,34.0,27.75,1362.0,420.00,1639.0,1642.0
95815,487.0,30.0,27.75,1409.0,420.00,1694.0,1690.0
95880,483.0,30.0,27.75,1417.0,420.00,1696.0,1696.0
95950,484.0,30.0,27.75,1414.0,420.00,1694.0,1699.0
96016,483.0,30.0,27.75,1408.0,420.00,1695.0,1702.0
96087,484.0,35.0,27.75,1421.0,420.00,1708.0,1703.0
96155,483.0,35.0,27.75,1415.0,420.00,1696.0,1700.0
96220,487.0,30.0,27.75,1406.0,420.00,1683.0,1688.0
96356,487.0,30.0,28.0,1389.0,421.00,1666.0,1661.0
96421,487.0,30.0,28.0,1380.0,421.00,1658.0,1654.0
96487,487.0,29.0,28.0,1368.0,421.00,1642.0,1641.0
96552,487.0,34.0,28.0,1368.0,421.00,1642.0,1644.0
96622,487.0,30.0,28.0,1402.0,421.00,1699.0,1698.0
96688,483.0,34.0,28.0,1432.0,421.00,1729.0,1723.0
96757,483.0,34.0,28.0,1430.0,421.00,1726.0,1720.0
96827,483.0,34.0,28.0,1423.0,421.00,1717.0,1712.0
96896,483.0,34.0,28.0,1426.0,421.00,1716.0,1716.0
96962,483.0,34.0,28.0,1430.0,421.00,1711.0,1717.0
97031,483.0,34.0,28.0,1421.0,421.00,1699.0,1700.0
97101,483.0,30.0,28.0,1410.0,421.00,1688.0,1692.0
97167,487.0,30.0,28.0,1400.0,421.00,1677.0,1677.0
97232,487.0,30.0,28.0,1384.0,421.00,1665.0,1671.0
97302,487.0,30.0,28.0,1376.0,421.00,1654.0,1658.0
97367,487.0,30.0,28.0,1372.0,421.00,1644.0,1642.0
97433,487.0,34.0,28.0,1358.0,421.00,1632.0,1637.0
97498,483.0,34.0,28.0,1351.0,421.00,1624.0,1629.0
97564,483.0,34.0,28.0,1371.0,421.00,1654.0,1663.0
97629,487.0,30.0,28.0,1419.0,422.00,1702.0,1708.0
97699,483.0,35.0,28.0,1418.0,422.00,1705.0,1700.0
97769,483.0,30.0,28.0,1411.0,422.00,1691.0,1691.0
97834,487.0,30.0,28.0,1415.0,422.00,1698.0,1704.0
97904,483.0,35.0,28.0,1414.0,422.00,1707.0,1702.0
97969,483.0,31.0,28.0,1413.0,423.00,1692.0,1691.0
98039,487.0,30.0,28.0,1404.0,423.00,1684.0,1679.0
98104,487.0,30.0,28.0,1388.0,423.00,1670.0,1674.0
98170,487.0,30.0,28.0,1380.0,423.00,1666.0,1665.0
98240,487.0,30.0,28.0,1373.0,424.00,1652.0,1656.0
98305,487.0,29.0,28.0,1371.0,426.00,1640.0,1640.0
